%neuron PEN2-6Ra
#User ktj21
#Jayaraman lab
0 0.001 0.442 -1 2178314
1 26.08674 0.442 0 2177522
2 1.87364 0.442 1 2177529
3 90.64426 0.442 2 2178066
4 3.62866 0.442 3 2178615
5 0.09017 0.44125000000000003 4 2890854
6 0.34582 0.4376 5 2178635
7 2.85034 0.4123 6 2178641
8 0.39451 0.387 7 2178645
9 1.16137 0.37585 8 2178658
10 0.58291 0.3636 9 2179467
11 0.77636 0.3544 10 2179476
12 0.05278 0.35924999999999996 10 2179480
13 0.08358 0.3583 12 2179508
14 0.66124 0.3533 13 2179516
15 1.40813 0.34850000000000003 13 6885477
16 0.23813 0.33775 15 6886578
17 0.43728 0.3335 16 6945209
18 0.305 0.3343 16 6886591
19 1.56246 0.32294999999999996 18 7040801
20 0.45268 0.3296 18 7040753
21 0.58314 0.3356 15 6885499
22 0.12813 0.33109999999999995 21 6885488
23 0.4712 0.32899999999999996 21 6885502
24 1.94168 0.34625 12 2179523
25 0.44707 0.3308 24 2179544
26 0.51793 0.32484999999999997 25 2488136
27 1.92232 0.31665 25 22040176
28 0.16372 0.33255 24 2486878
29 0.80069 0.36214999999999997 9 2179602
30 0.82365 0.3782 8 2179647
31 1.83241 0.35985 30 2179704
32 1.11145 0.3403 31 2179910
33 2.21363 0.33355 31 2179739
34 1.18064 0.31279999999999997 33 2179954
35 1.19184 0.2993 34 2180087
36 2.02992 0.2821 35 2422035
37 0.51074 0.26895 36 2422042
38 1.33225 0.26005 37 2422137
39 0.45592 0.2516 38 2422146
40 0.09833 0.25325 38 2422154
41 1.03583 0.26145 37 2905922
42 1.35311 0.2649 36 2905872
43 1.76173 0.28345 35 2180115
44 0.68903 0.27075 43 2486891
45 1.96 0.25805 44 6847785
46 0.62779 0.246 45 2487064
47 1.29847 0.2376 46 2487099
48 0.70916 0.24009999999999998 46 3051735
49 0.12993 0.23645 48 3051755
50 0.09965 0.23654999999999998 48 3051744
51 0.81174 0.23354999999999998 48 3188028
52 1.68492 0.2414 45 6847830
53 0.7595 0.26365 44 3051964
54 0.61096 0.27115 43 2486900
55 2.39628 0.25685 54 2486989
56 0.97625 0.24130000000000001 55 2487182
57 1.65479 0.2384 55 2487570
58 0.72937 0.22820000000000001 57 6838637
59 0.58247 0.22285 58 6838667
60 0.28171 0.22405 58 6838655
61 0.27195 0.2301 57 2487602
62 0.1781 0.2672 54 2486906
63 1.38247 0.25975 62 2487389
64 3.45141 0.23825 63 2487504
65 0.88281 0.21985 64 2487557
66 0.23113 0.2224 64 2487520
67 0.70707 0.24995 63 2905930
68 0.57375 0.26354999999999995 62 3051880
69 0.74987 0.30169999999999997 34 2180017
70 0.96578 0.29225 69 2487901
71 0.52572 0.29464999999999997 69 2180081
72 0.13617 0.29674999999999996 69 2180056
73 0.87482 0.31455 33 2179778
74 0.73081 0.30525 73 2179831
75 0.77611 0.29685 74 2179871
76 0.04401 0.29235 75 2179872
77 0.29791 0.29095000000000004 75 2179875
78 0.06815 0.30074999999999996 74 2179864
79 0.21693 0.30815000000000003 73 2179793
80 0.3584 0.3698 30 2179684
81 0.57934 0.38570000000000004 7 2179612
82 0.79497 0.3758 81 2179619
83 0.13282 0.3805 81 2179640
84 0.2569 0.4326 6 2178786
85 1.12711 0.4214 84 2178793
86 1.05529 0.42195 84 2890831
87 1.37302 0.40290000000000004 86 2178813
88 1.07461 0.38455 87 3003393
89 1.17657 0.3685 88 2179896
90 0.89036 0.35435 89 2423977
91 0.93611 0.3424 90 2487774
92 1.68073 0.3261 91 2487779
93 1.20527 0.30885 92 2487883
94 1.3189 0.30825 92 3100633
95 1.75905 0.2912 94 3100770
96 2.52507 0.2692 95 3100789
97 0.17333 0.25585 96 3100792
98 0.22552 0.25395 97 3100798
99 3.61214 0.23935 97 3167112
100 0.66254 0.2536 96 3100803
101 2.4639 0.23975000000000002 100 3100986
102 0.09407 0.22865000000000002 101 3100987
103 1.08198 0.2239 102 3100988
104 0.25041 0.21855 103 3100992
105 2.04849 0.21175 103 3101054
106 0.10539 0.20365 105 3101057
107 0.04347 0.20384999999999998 105 3101058
108 0.67288 0.20129999999999998 107 3170995
109 0.05361 0.1987 108 3170996
110 0.89859 0.19540000000000002 109 3173000
111 1.11455 0.1886 110 3188262
112 0.41331 0.18355 111 3214948
113 0.369 0.1837 111 3214923
114 0.36744 0.19105 110 3173034
115 0.52316 0.19669999999999999 109 3173105
116 0.41929 0.19745000000000001 108 3171055
117 1.02405 0.20005 107 3101070
118 1.10923 0.2238 102 3101010
119 0.04005 0.22885 101 3100998
120 0.82536 0.22535 119 3101012
121 0.20067 0.2212 120 3101013
122 0.21152 0.22115 120 6844297
123 0.10955 0.22825 119 3101024
124 0.58886 0.2254 123 3101040
125 0.33019 0.2217 124 3170974
126 0.05346 0.2228 124 3101045
127 0.49241 0.2258 123 3101036
128 0.26655 0.2493 100 3100810
129 0.81368 0.24445 128 3100811
130 0.53039 0.2385 129 3101076
131 1.1624 0.23135 130 3101111
132 1.35308 0.22110000000000002 131 3101161
133 2.86273 0.21545 131 3166734
134 0.25753 0.20345000000000002 133 3166776
135 0.08467 0.2041 133 3166762
136 0.94621 0.23225 130 3101099
137 1.52144 0.2222 136 3166912
138 0.37554 0.21465 137 3166916
139 0.0991 0.21284999999999998 138 3166924
140 0.05521 0.21589999999999998 137 3166936
141 1.14506 0.24305 128 3169874
142 0.67025 0.23509999999999998 141 3169883
143 0.44802 0.23035 142 3188000
144 0.41505 0.2268 143 3188001
145 1.92219 0.21760000000000002 144 3206203
146 0.55798 0.20800000000000002 145 3206257
147 0.82359 0.20295000000000002 146 3225237
148 3.42753 0.19415 146 3206720
149 0.5234 0.20815 145 3206741
150 1.24004 0.2202 144 6848815
151 0.9924 0.2245 143 3205876
152 0.0628 0.23195 142 3169900
153 0.09583 0.23754999999999998 141 3169882
154 1.39217 0.27465 95 3167123
155 1.3252 0.26125 154 3167182
156 0.22128 0.25385 155 3167188
157 0.18201 0.25405 155 3167206
158 0.05274 0.2673 154 3167149
159 0.94588 0.26245 158 3167297
160 0.56217 0.25529999999999997 159 3167393
161 0.43934 0.2507 160 3167396
162 0.26333 0.2475 161 3167437
163 0.54173 0.2439 162 3172978
164 0.71777 0.24309999999999998 162 3169868
165 0.08823 0.24825 161 3167407
166 0.04982 0.25244999999999995 160 3167417
167 0.77681 0.26325 158 3159112
168 0.36869 0.25780000000000003 167 3172604
169 3.02119 0.24275 168 3172861
170 0.14164 0.2288 169 3172901
171 0.36503 0.2279 169 3172867
172 0.21331 0.22549999999999998 171 3172898
173 0.6668 0.2237 171 3172880
174 0.04423 0.2262 171 3172874
175 1.76077 0.2481 168 3172960
176 0.6549 0.29705000000000004 94 3100825
177 1.12167 0.32945 91 2487797
178 1.429 0.3393 90 3059675
179 0.68828 0.32599999999999996 178 3059713
180 0.27699 0.35845 89 2423984
181 1.46235 0.36655 88 3059606
182 2.13247 0.37715 87 2178835
183 0.82007 0.3564 182 2178840
184 1.72365 0.3399 183 2486694
185 0.63171 0.32505 184 2486698
186 0.33342 0.3192 185 2486709
187 2.16423 0.3049 186 2487925
188 0.80506 0.2883 187 2487939
189 0.40688 0.2819 188 2487951
190 1.39654 0.27275 189 2487952
191 0.04419 0.26549999999999996 190 2487954
192 1.43187 0.25849999999999995 191 2524656
193 0.55192 0.24919999999999998 192 2524658
194 0.12491 0.24615 193 3005582
195 0.08425 0.2452 194 2524662
196 0.3224 0.24415 194 3005588
197 0.08922 0.24630000000000002 193 3005592
198 0.27676 0.24465 197 3052637
199 0.3902 0.24415 197 3052605
200 1.62947 0.24445 192 2524680
201 0.54243 0.2349 200 2524692
202 0.40203 0.2309 201 2524699
203 0.58268 0.23020000000000002 201 3053380
204 0.54642 0.2349 200 3005539
205 0.14256 0.23199999999999998 204 3005542
206 0.04727 0.23120000000000002 205 3005546
207 0.95015 0.22710000000000002 206 3053394
208 0.26943 0.22985 206 3053397
209 0.0408 0.22854999999999998 208 3053398
210 0.32568 0.2274 208 3053399
211 0.26417 0.22499999999999998 210 3053404
212 3.44253 0.21295 210 6883612
213 0.45035 0.22949999999999998 205 3005547
214 0.1984 0.2268 213 3005550
215 2.47163 0.21795 213 3052925
216 1.8366 0.22515000000000002 204 3053136
217 0.05518 0.21745 216 3053140
218 1.5855 0.2117 216 3053265
219 0.99253 0.26055 191 3005598
220 0.11258 0.2553 219 3052015
221 0.24426 0.25465000000000004 219 3052065
222 0.35554 0.2519 221 3052281
223 0.33425 0.24875000000000003 222 3052288
224 0.12617 0.24665 223 3052291
225 0.59982 0.24455 223 3052404
226 0.09645 0.24145 225 3052408
227 0.70647 0.23885 225 6848563
228 0.16584 0.24955 222 3052314
229 0.96593 0.24914999999999998 221 6966322
230 0.08498 0.2653 190 2487976
231 0.5315 0.26234999999999997 230 2488012
232 0.87075 0.26075000000000004 230 2487995
233 1.48159 0.24985000000000002 232 2524919
234 1.92067 0.2479 232 6884632
235 0.90668 0.2752 189 2488036
236 0.52382 0.268 235 2488072
237 0.65464 0.26735 235 6848863
238 0.97814 0.27895 188 3053655
239 0.95135 0.2692 238 3053778
240 0.32124 0.2723 238 3053662
241 1.28138 0.28585000000000005 187 3053785
242 0.49537 0.3143 186 2486722
243 1.43843 0.30325 242 2486771
244 0.33557 0.2933 243 2486781
245 0.81791 0.28715 244 2488147
246 1.42552 0.28400000000000003 244 2486827
247 1.24832 0.2703 246 2487738
248 0.60037 0.2735 246 2486868
249 0.86547 0.29045 243 3053963
250 0.3652 0.3093 242 2486731
251 1.73177 0.31115 185 6883369
252 1.36687 0.29364999999999997 251 6883388
253 0.97383 0.28115 252 6888896
254 0.36486 0.27425 253 6888897
255 0.31918 0.2708 254 7168756
256 0.07161 0.272 254 6888903
257 1.59302 0.2682 253 6888920
258 1.21895 0.25465 257 7169679
259 0.33343 0.25875 257 6888921
260 0.46242 0.25505 259 6888925
261 0.47282 0.255 259 6888928
262 1.77945 0.2771 252 6883413
263 1.19195 0.29455 251 7190053
264 4.17598 0.3052 184 3053916
265 0.76839 0.3459 183 2487623
266 0.89057 0.3353 265 2487667
267 0.6562 0.33675 265 2487653
268 0.39473 0.35924999999999996 182 5940603
269 2.60186 0.33995 268 2178888
270 0.71953 0.31905 269 2906057
271 0.05759 0.31445 270 2906947
272 2.45459 0.3004 271 2907041
273 0.05583 0.2864 272 2907042
274 2.78035 0.27215 273 2907077
275 1.42723 0.25165 274 2907116
276 0.16734 0.24435 275 2907127
277 0.70278 0.242 275 6848232
278 2.07872 0.24875 274 3058496
279 0.14116 0.23870000000000002 278 3058499
280 0.93451 0.23535 278 3058693
281 0.27383 0.28465 273 2907143
282 0.98315 0.28154999999999997 272 3082966
283 0.98206 0.30845 271 2906960
284 0.75628 0.2986 283 2906967
285 0.49134 0.29175 284 2906974
286 0.14399 0.2883 285 2906977
287 1.14242 0.2831 285 3239212
288 1.96257 0.26744999999999997 287 6883354
289 0.14183 0.29359999999999997 284 7144490
290 1.05372 0.3087 270 3082984
291 0.44986 0.3001 290 3083025
292 0.73564 0.29359999999999997 291 3083106
293 1.07853 0.29664999999999997 290 3205092
294 0.32777 0.28895000000000004 293 3205095
295 0.36038 0.2853 294 3205113
296 0.82846 0.27915 295 3205162
297 0.16942 0.2825 295 3205124
298 0.04483 0.28695000000000004 294 3205104
299 0.04482 0.2905 293 3205101
300 1.61353 0.31384999999999996 269 2178925
301 1.13609 0.29810000000000003 300 2178971
302 1.47371 0.28405 301 2892162
303 0.66877 0.27295 302 2907446
304 0.29563 0.26815 303 2907456
305 2.01231 0.2572 304 2908117
306 0.65252 0.26639999999999997 303 2907574
307 0.18631 0.2623 306 2908304
308 1.59411 0.26195 303 3083991
309 0.19091 0.2534 308 3084013
310 1.62712 0.24695 308 3084186
311 0.83531 0.23605 310 3084320
312 0.04211 0.2323 311 3084326
313 0.27626 0.23095 312 3084363
314 0.0876 0.22945 313 3084388
315 0.44029 0.228 313 3084402
316 0.22695 0.23115 312 3084351
317 1.05588 0.22815000000000002 311 6821114
318 0.20961 0.23870000000000002 310 3084203
319 1.35056 0.2631 303 3084676
320 0.68929 0.27285 302 3083127
321 2.81387 0.2774 301 2179033
322 1.93094 0.25405 321 2179037
323 0.55349 0.24265 322 2180134
324 1.77516 0.23270000000000002 323 3008545
325 0.52242 0.22310000000000002 324 2180213
326 0.84166 0.22185 324 3055780
327 1.02361 0.2358 323 3084811
328 1.1282 0.2268 327 3097244
329 0.13695 0.23085 327 3084842
330 0.54953 0.22805 329 3084848
331 0.18584 0.22505 330 3089805
332 0.55104 0.22210000000000002 331 3089813
333 0.14348 0.2193 332 3089820
334 1.61126 0.2137 332 3089829
335 1.31608 0.20274999999999999 334 3089861
336 0.17898 0.19740000000000002 335 3089864
337 0.72501 0.20484999999999998 334 3089876
338 0.83152 0.19924999999999998 337 3089892
339 0.37923 0.195 338 3089896
340 0.04337 0.19355 339 3089897
341 0.34405 0.19224999999999998 340 3089922
342 0.06667 0.19085 341 3089923
343 0.79663 0.18845 341 3188223
344 0.59005 0.1839 343 3204985
345 0.05201 0.18185 344 3204994
346 0.7753 0.17925000000000002 345 3205059
347 0.29259 0.18075 345 3205006
348 0.52359 0.18035 344 3205026
349 2.34501 0.18575 340 3089970
350 1.47311 0.18880000000000002 339 3089943
351 0.59771 0.2234 330 6848776
352 1.44083 0.22444999999999998 329 3084996
353 0.39118 0.21710000000000002 352 3085016
354 0.04252 0.21545 353 3085031
355 0.08488 0.21495 354 3085039
356 1.71951 0.20884999999999998 354 3089494
357 0.39951 0.21405000000000002 353 3085137
358 0.27505 0.2439 322 2179041
359 2.89486 0.2306 358 2488265
360 1.90484 0.2113 359 2488323
361 0.30451 0.203 360 2488326
362 0.49836 0.2023 360 2488331
363 0.73563 0.19795000000000001 362 2488334
364 0.1827 0.19474999999999998 363 2488337
365 0.15596 0.19355 364 2488338
366 2.41488 0.1852 365 2890731
367 0.62073 0.1755 366 2524992
368 0.08453 0.17335 367 2524993
369 0.87183 0.17099999999999999 367 3114905
370 0.97074 0.16565 369 3114936
371 1.10421 0.16525 369 3166507
372 0.95263 0.1745 366 2922068
373 0.5919 0.19105 365 2488628
374 2.178 0.18214999999999998 373 2524943
375 0.20185 0.1884 373 2488652
376 0.94642 0.18465 375 2488710
377 1.61319 0.18255 375 2488676
378 1.15044 0.18535000000000001 373 3066192
379 0.53301 0.1912 365 3003289
380 3.40544 0.1832 364 2933669
381 0.46278 0.1938 363 2488413
382 1.08202 0.1886 381 2488418
383 1.69934 0.1797 382 2488475
384 2.40881 0.1674 383 2488556
385 0.59492 0.1726 383 2488495
386 1.88288 0.17909999999999998 382 3066395
387 1.491 0.16885 386 3066516
388 1.14768 0.16135 387 3066823
389 0.55402 0.16294999999999998 387 3066689
390 1.62868 0.16849999999999998 386 3067014
391 0.49409 0.19055 381 2488429
392 1.13049 0.1966 362 6847177
393 0.77382 0.2155 359 2488282
394 1.03269 0.20865 393 2525077
395 1.26579 0.20779999999999998 393 2488584
396 1.25928 0.23725000000000002 358 2890742
397 1.2343 0.22675 396 2933849
398 0.2851 0.2306 396 2910481
399 1.78585 0.22225 398 2910634
400 0.40416 0.21355000000000002 399 2910679
401 0.11539 0.21465 399 2910695
402 0.33429 0.21295 401 2910711
403 0.85947 0.20850000000000002 402 2910768
404 0.39224 0.20385 403 2911010
405 1.65857 0.19945000000000002 403 3054858
406 1.19894 0.18955 405 3055068
407 0.31417 0.1845 406 3055108
408 0.47194 0.184 406 3055095
409 0.0816 0.18225 408 3055105
410 0.06203 0.18180000000000002 409 3055106
411 0.30264 0.18105 409 3187058
412 0.04618 0.18235 408 3055107
413 0.47428 0.19195 405 3054925
414 0.70274 0.188 413 3054937
415 0.31267 0.1847 414 3054945
416 0.53733 0.18395 414 3054990
417 0.25349 0.18945 413 3055015
418 0.18489 0.211 402 2910746
419 0.87583 0.2109 401 6869346
420 0.2961 0.20650000000000002 419 6966334
421 1.61287 0.1997 420 6966361
422 0.59713 0.192 421 6966370
423 0.10834 0.19365 421 6966381
424 0.52013 0.20355 420 6966344
425 1.19686 0.22455 398 3085212
426 1.01467 0.2158 425 3085330
427 0.4945 0.21005000000000001 426 3085400
428 0.5467 0.20985 426 3085433
429 0.99427 0.20415 428 3085686
430 0.04153 0.20035 429 3085697
431 0.77607 0.20495000000000002 428 6868791
432 0.52715 0.20024999999999998 431 6868820
433 0.25393 0.2187 425 3085259
434 1.88408 0.25425 321 2179056
435 1.02961 0.241 434 2179063
436 1.40185 0.23065 435 2179249
437 0.82818 0.2215 436 2524758
438 0.23719 0.21725 437 2524761
439 0.41008 0.21475 438 2524762
440 0.10481 0.2128 439 2911024
441 0.56726 0.21105000000000002 439 3188015
442 0.63224 0.20655 441 3205306
443 0.04884 0.20405 442 3205309
444 1.13108 0.2002 442 3205335
445 0.28218 0.1952 444 3205346
446 0.25738 0.1953 444 3205355
447 0.13529 0.19395 446 3205368
448 0.43417 0.19295 446 3205363
449 0.667 0.20645 441 3205385
450 1.00927 0.2125 438 6847510
451 0.10532 0.2178 437 2524773
452 2.10297 0.21660000000000001 436 2179333
453 0.1143 0.20800000000000002 452 2179346
454 1.58978 0.20190000000000002 453 2421942
455 0.04168 0.19605 454 2421943
456 1.30607 0.19175 454 2421970
457 1.89848 0.2008 453 2179403
458 1.27506 0.18975 457 2180230
459 0.44225 0.18409999999999999 458 2180244
460 0.04405 0.18535000000000001 458 2180235
461 0.14391 0.19355 457 2179421
462 0.26031 0.19219999999999998 461 2180261
463 1.05462 0.1878 462 2180264
464 2.09662 0.1778 463 2421914
465 0.06531 0.18409999999999999 463 2421814
466 0.75079 0.1815 465 2421891
467 0.44871 0.18245 465 2421834
468 1.85442 0.18525 462 2180352
469 0.15623 0.17875 468 2180363
470 0.46089 0.1778 468 2180367
471 0.64397 0.19090000000000001 461 6804700
472 0.25691 0.18785000000000002 471 6804737
473 0.2766 0.18780000000000002 471 6804785
474 0.86156 0.18409999999999999 473 6883445
475 0.6719 0.1847 473 6883468
476 0.67487 0.1804 475 3236179
477 0.07589 0.17804999999999999 476 6883511
478 0.86441 0.17980000000000002 475 6883494
479 1.46042 0.20315 452 3054792
480 0.99796 0.2323 435 2179081
481 1.03011 0.22394999999999998 480 2179107
482 2.13777 0.2117 481 2179200
483 0.2032 0.20285 482 2179218
484 0.45099 0.20195000000000002 482 3005501
485 0.12449 0.19990000000000002 484 3005502
486 0.18838 0.19965 484 3005504
487 0.1032 0.21939999999999998 481 2179111
488 0.05518 0.22785 480 2179085
489 1.92358 0.2372 434 3109402
490 0.88846 0.2253 489 2988675
491 2.17446 0.2134 490 2988651
492 0.38214 0.2202 490 2988681
493 1.10626 0.22444999999999998 489 7177736
494 0.50526 0.218 493 7177791
495 1.20984 0.21145 494 7178784
496 0.80993 0.20395000000000002 495 7178788
497 0.20351 0.20615 495 7178812
498 0.10267 0.20500000000000002 497 3241911
499 0.34271 0.2034 498 7178805
500 0.65156 0.20305 497 7178816
501 1.71371 0.1948 500 7178876
502 0.53864 0.1871 501 7178899
503 0.33579 0.18780000000000002 501 7178928
504 0.34215 0.2147 494 7177792
505 0.43808 0.21175 504 7177880
506 0.46401 0.20835 505 21369105
507 0.5713 0.20455 506 7178062
508 0.53535 0.2006 507 7178066
509 0.15748 0.1981 508 7178067
510 0.86757 0.19455 509 7178083
511 0.44598 0.1971 508 7178103
512 0.31412 0.19445 511 7178138
513 0.15801 0.19495 511 7178190
514 0.45901 0.19285 513 7178121
515 1.78609 0.1885 513 7178219
516 0.37022 0.1814 515 7178249
517 0.59187 0.20040000000000002 507 7178311
518 0.88237 0.20685 505 7177892
519 0.1758 0.20295000000000002 518 7177895
520 0.7777 0.21045 504 7178381
521 0.41225 0.206 520 3244186
522 0.15733 0.20395 521 7178451
523 0.8645 0.20029999999999998 522 7178507
524 0.38227 0.1959 523 7178523
525 0.63243 0.2052 520 7178401
526 0.08568 0.2026 525 3244189
527 0.28509 0.2013 526 7178413
528 0.85538 0.21665 493 7177750
529 0.41934 0.21175 528 7178554
530 3.41145 0.20115 528 7178750
531 0.63432 0.30085 300 2178926
532 1.62519 0.28859999999999997 531 2178928
533 1.65447 0.27165 532 2486436
534 0.15527 0.26265000000000005 533 6871760
535 0.16527 0.2611 534 6867698
536 0.28512 0.25895 535 6868372
537 0.15488 0.25685 536 2486445
538 1.46795 0.2535 535 7175030
539 0.38016 0.245 538 7175038
540 1.28356 0.23775 539 7175615
541 0.50427 0.2301 540 7175808
542 1.91259 0.22045 541 7175863
543 0.80457 0.2289 540 7175646
544 1.26393 0.22055 543 7175695
545 0.44742 0.2138 544 7175717
546 0.49439 0.21025 545 7175732
547 0.48437 0.24114999999999998 539 7175057
548 1.08345 0.24195 538 7175081
549 0.82392 0.2337 548 7175412
550 1.096 0.2257 549 7175460
551 0.52493 0.22804999999999997 549 7175484
552 0.45829 0.2352 548 7175101
553 0.73807 0.23015 552 7175928
554 0.89689 0.2235 553 7176086
555 0.2892 0.21875 554 7176034
556 0.60271 0.21755000000000002 554 7176101
557 1.31538 0.21025 556 7176480
558 0.50294 0.21325 556 7176424
559 0.16213 0.22644999999999998 553 7175938
560 0.77408 0.2227 559 7175968
561 0.08382 0.22544999999999998 559 7175980
562 0.81915 0.2298 552 7175124
563 0.11663 0.22594999999999998 562 7175158
564 0.1552 0.22485 563 7175132
565 2.8609 0.2145 563 3492957
566 0.83808 0.2005 565 7175598
567 0.57032 0.2241 562 7175181
568 0.12433 0.2213 567 7175170
569 1.51122 0.215 568 7175198
570 0.52484 0.20725 569 7175310
571 0.14115 0.2048 570 7175303
572 1.06783 0.20529999999999998 569 7175325
573 0.95927 0.198 572 7175349
574 1.09958 0.21655 568 7175223
575 0.76347 0.2188 567 7175186
576 0.71225 0.2131 575 7175378
577 0.76107 0.21289999999999998 575 7175391
578 2.63584 0.2513 533 2486626
579 0.18285 0.2625 533 2486480
580 0.1578 0.26085 579 2486483
581 0.15799 0.25934999999999997 580 3005371
582 1.34113 0.2524 581 2891498
583 0.74745 0.2429 582 2486548
584 0.82083 0.2361 583 2891484
585 0.11968 0.2321 584 2908445
586 1.05508 0.22725 585 3054261
587 0.05583 0.23135 585 2908448
588 3.89999 0.216 587 2908853
589 0.15468 0.23045 587 2908455
590 0.51522 0.23045 584 2908324
591 0.83015 0.22494999999999998 590 2908370
592 0.54106 0.21944999999999998 591 2908386
593 1.30613 0.2165 591 2908434
594 0.07046 0.21115 593 2908435
595 0.23633 0.2273 590 2908440
596 0.78868 0.23625000000000002 583 6873648
597 1.14438 0.2412 582 2891504
598 0.15632 0.23554999999999998 597 2892546
599 0.04615 0.2347 598 2892548
600 0.3664 0.23295 599 2892553
601 0.54118 0.2322 599 2909071
602 0.51386 0.23270000000000002 598 3187995
603 0.66938 0.23335 597 2908955
604 0.74545 0.2551 581 3053973
605 1.92461 0.25125 580 6848609
606 0.87252 0.23865 605 2486656
607 0.20525 0.23399999999999999 606 2486660
608 0.086 0.23275 607 2486662
609 0.19802 0.23404999999999998 606 2486672
610 0.8093 0.2389 605 6884022
611 0.14545 0.2348 610 6884025
612 0.74784 0.23225 610 6884037
613 0.31848 0.2278 612 6884048
614 0.29577 0.2279 612 6884072
615 0.08132 0.22635 614 6884077
616 0.36627 0.2252 614 6884101
617 0.51797 0.25915 579 3008620
618 1.1299 0.2515 617 3054512
619 1.01035 0.25205 617 3054022
620 0.69286 0.24430000000000002 619 3054083
621 0.42306 0.23935 620 3054096
622 0.26348 0.2364 621 3054119
623 2.86624 0.22585 621 3205254
624 1.30088 0.23565 620 3054219
625 0.04819 0.2472 619 3054028
626 0.14761 0.27915 532 2178931
627 0.40688 0.27635 626 2178955
628 1.26413 0.27205 626 2907374
629 0.51572 0.26325 628 2907381
630 0.30691 0.2593 629 2907392
631 0.46681 0.26344999999999996 628 3187983
632 0.75113 0.25765 631 3205408
633 0.21716 0.2531 632 3205411
634 1.26046 0.2484 632 3205427
635 0.11953 0.2422 634 3205432
636 1.03094 0.23725000000000002 635 3205439
637 0.34211 0.23135 636 3205450
638 0.04351 0.22970000000000002 637 3205455
639 0.23305 0.22895 637 3205858
640 0.04822 0.2326 636 3205447
641 0.17336 0.2409 635 3205437
642 0.51183 0.24045 634 6877011
643 0.21432 0.2602 631 3205862
644 0.57915 0.29415 531 6966395
645 0.84148 0.28654999999999997 644 6966405
646 0.04177 0.28185000000000004 645 3239550
647 0.45967 0.2797 645 7041118
648 0.3811 0.27535 647 7041124
649 0.39345 0.2753 647 7041141
650 0.88344 0.2863 644 6966419
651 0.15266 0.28080000000000005 650 7040992
652 0.38595 0.2796 650 7040849
653 0.5037 0.27505 652 7040884
654 0.42324 0.2704 653 7040893
655 0.73809 0.26885000000000003 653 7040928
656 0.88212 0.261 655 7040965
657 0.53556 0.27490000000000003 652 3239155
658 0.06586 0.27185000000000004 657 7040864
659 0.46532 0.2792 650 3493367
660 0.21092 0.27575 659 3492250
661 0.28222 0.27325 660 7172242
662 0.44962 0.2696 661 7174896
663 1.3112 0.26539999999999997 661 7174954
664 0.0408 0.25885 663 7174960
665 0.80611 0.35124999999999995 268 5940607
666 1.3333 0.4032 86 2905816
667 0.79724 0.38715 666 2905832
668 0.37144 0.39025 666 2905825
669 1.93197 0.4248 5 2905806
670 0.22294 0.4074 669 2905810
671 0.33197 0.40655 669 2905814
672 22.60166 0.3054 3 2178130
673 12.35857 0.14045000000000002 672 2178174
674 0.94044 0.11044999999999999 673 2178175
675 9.89043 0.09495 674 2178203
676 1.9245 0.079 675 2178210
677 4.01337 0.073 676 2178222
678 1.99798 0.06739999999999999 677 2178231
679 8.30046 0.05985 678 2178261
680 7.68309 0.0501 679 2178276
681 1.2386 0.0533 679 2178265
682 1.04772 0.06484999999999999 678 2178238
683 0.97238 0.06825 677 2178229
684 0.81404 0.07605 676 2178216
685 0.55306 0.0805 675 2178208
686 1.44301 0.1064 674 2178178
687 0.42771 0.11135 673 2178181
688 0.82899 0.1664 672 2178136
689 6.00033 0.442 2 2177561
690 24.94853 0.442 689 2177781
691 0.69647 0.43620000000000003 690 2177788
692 0.7781 0.42410000000000003 691 10574269
693 0.74643 0.41195000000000004 692 2427915
694 0.0534 0.40565 693 2427926
695 0.14978 0.40405 694 2427928
696 0.32073 0.40045 695 2427930
697 0.81562 0.39195 696 2427932
698 0.42678 0.39480000000000004 696 2427939
699 0.49386 0.388 698 2427940
700 1.35643 0.37475 699 2427941
701 0.30415 0.363 700 2427967
702 0.22401 0.3594 701 2427969
703 0.54586 0.35425 702 2427971
704 0.9745 0.35145 702 2427981
705 0.05671 0.3446 704 2427984
706 0.45059 0.362 700 2427989
707 0.14945 0.3579 706 2427999
708 2.60056 0.3403 707 2428015
709 1.01909 0.31765 708 2428025
710 1.52474 0.303 709 2428026
711 0.44319 0.29200000000000004 710 2428023
712 1.81579 0.2848 710 2428048
713 0.48292 0.2728 712 2428052
714 0.98434 0.2703 712 2428061
715 0.04907 0.2652 714 2428062
716 0.27677 0.26365 715 2428067
717 0.18479 0.26139999999999997 716 2428070
718 0.73835 0.25705 717 2428074
719 1.05456 0.25555 717 2428087
720 0.05189 0.25039999999999996 719 2275891
721 0.14298 0.24955 720 2428090
722 0.39156 0.2471 721 2428091
723 0.59148 0.2427 722 10582440
724 0.28406 0.23885 723 2428096
725 0.54437 0.23775000000000002 723 10697577
726 0.84735 0.24159999999999998 722 10698170
727 0.04046 0.2377 726 10698177
728 1.4486 0.2318 726 9798429
729 0.11612 0.22525 728 6123467
730 0.38283 0.22325 729 3045525
731 0.10399 0.2213 730 10702438
732 0.14491 0.2203 731 10703662
733 0.3578 0.2183 732 10702521
734 2.54489 0.20750000000000002 733 2450195
735 0.07393 0.19785 734 10704317
736 0.0645 0.19735 735 11086893
737 0.14352 0.1966 736 22963812
738 0.08319 0.1958 737 10704229
739 0.94343 0.1923 738 10704268
740 1.61551 0.1839 739 10705139
741 1.21488 0.19295 736 11086902
742 0.38038 0.21545 733 10706045
743 1.14234 0.2153 732 11298872
744 0.67388 0.223 728 10699967
745 0.51001 0.2183 744 10699986
746 0.91084 0.21675 744 10700082
747 1.19312 0.22095 728 11087097
748 0.49483 0.2143 747 10701611
749 0.99396 0.24445 721 2428108
750 1.04777 0.23554999999999998 749 2428128
751 0.04797 0.3113 709 2428027
752 0.18161 0.3557 707 2428130
753 1.06326 0.34755 752 2428142
754 0.39306 0.3381 753 2428145
755 0.66331 0.33640000000000003 753 2527017
756 1.72272 0.34765 706 2427995
757 0.09149 0.3358 756 2427996
758 0.70058 0.36035 700 10585106
759 1.83114 0.34375 758 10755259
760 0.45572 0.32909999999999995 759 10755417
761 0.09285 0.3313 759 10755297
762 0.27776 0.35375 758 10754950
763 0.48675 0.38085 699 10584695
764 0.40727 0.3886 698 2428151
765 1.10453 0.37770000000000004 764 2428150
766 1.41764 0.36014999999999997 765 2428149
767 1.01535 0.34395 766 2427964
768 0.48199 0.34735 766 2428164
769 1.15761 0.3369 768 2428170
770 1.01542 0.33775 768 2428185
771 0.15511 0.33035000000000003 770 2428194
772 0.42093 0.32685 771 2428195
773 0.04182 0.32399999999999995 772 2428196
774 0.34883 0.3216 773 2428202
775 1.69504 0.31379999999999997 773 2744247
776 0.11014 0.30325 775 10794202
777 0.24855 0.3228 772 10570495
778 0.04653 0.3291 771 2428203
779 1.25442 0.32130000000000003 778 2323422
780 0.13889 0.31295 779 2428215
781 0.60371 0.30865 780 2428221
782 1.03922 0.3062 780 2428224
783 0.26649 0.2988 782 2428240
784 0.6234 0.2939 783 2428242
785 1.17909 0.2843 784 2428252
786 0.61952 0.2872 784 2322957
787 0.20614 0.28285 786 2428261
788 1.30578 0.27515 787 2428265
789 1.14218 0.263 788 2428274
790 0.56834 0.25485 789 2428275
791 0.13172 0.2516 790 2428277
792 0.24206 0.2499 791 2428291
793 0.536 0.24635 792 2428292
794 0.3151 0.24255 793 2428297
795 0.08925 0.2435 793 10615614
796 0.04822 0.2429 795 10615615
797 0.05609 0.2485 792 2428298
798 0.79755 0.24465 797 2322824
799 0.54532 0.24580000000000002 797 2428311
800 1.34289 0.2376 799 2428327
801 0.04822 0.2316 800 2428328
802 0.2129 0.2309 800 2428330
803 0.61918 0.22744999999999999 802 2428336
804 0.21927 0.22399999999999998 803 2428340
805 0.65446 0.2273 802 2428354
806 0.05382 0.2244 805 2428355
807 0.21781 0.2233 806 2428358
808 0.58864 0.2201 807 2428366
809 0.68539 0.21515 808 2428397
810 0.26012 0.2115 809 2428399
811 0.04817 0.21034999999999998 810 2428400
812 0.10255 0.2121 809 2428401
813 0.0612 0.21145 812 2428402
814 1.1028 0.21355000000000002 808 2428379
815 0.88917 0.20605 814 2428391
816 0.28254 0.2018 815 10615241
817 0.04144 0.20065 816 10615244
818 0.20462 0.20005 816 10615303
819 0.0409 0.21760000000000002 808 2428392
820 0.10727 0.217 819 2428394
821 0.67692 0.2491 790 2428434
822 1.78454 0.2383 821 2428503
823 0.57569 0.22820000000000001 822 10619518
824 0.49788 0.2238 823 2428511
825 0.5623 0.21960000000000002 824 2428516
826 0.8795 0.21835 824 2428528
827 1.08592 0.2108 826 2428550
828 0.13162 0.20625 827 2428551
829 0.54699 0.2038 828 2428553
830 0.10679 0.20140000000000002 829 2428554
831 0.06061 0.2008 830 2428555
832 0.93733 0.1985 829 2428562
833 0.21206 0.19445 832 2428564
834 0.07465 0.19345 833 2428565
835 0.14321 0.1927 834 2428567
836 0.14586 0.1947 832 2428569
837 0.4318 0.1927 836 2428573
838 0.2041 0.1935 836 2428575
839 0.73423 0.20405 827 10619362
840 0.68842 0.22305 823 10619526
841 0.04346 0.22010000000000002 840 10619530
842 0.94786 0.222 823 2854655
843 0.94169 0.22675 822 2428590
844 0.5421 0.24359999999999998 821 2428443
845 0.69088 0.2382 844 2428452
846 2.80582 0.22955 844 2428501
847 1.15794 0.25215 789 2428421
848 0.10029 0.24635 847 2428422
849 0.41546 0.26645 788 10808164
850 1.08486 0.25925 849 10808183
851 0.08011 0.26405 849 10808170
852 0.13507 0.2811 787 2428270
853 0.50554 0.2778 852 2428606
854 0.85513 0.27090000000000003 853 2428617
855 0.11744 0.26605 854 2428618
856 1.29735 0.26875 853 2428629
857 0.17593 0.26144999999999996 856 2428632
858 0.61789 0.25770000000000004 857 2428637
859 0.27544 0.25355000000000005 858 2428640
860 0.91517 0.25634999999999997 857 2428669
861 0.97995 0.24764999999999998 860 2428670
862 0.68858 0.2402 861 2428649
863 0.36507 0.23565 862 2428660
864 0.61627 0.23149999999999998 863 8543100
865 0.24046 0.23615 862 10795235
866 0.28114 0.2339 865 10795253
867 1.72646 0.2358 861 2428685
868 1.67118 0.22175 867 2428711
869 0.04142 0.21495 868 2330631
870 0.08165 0.21445 869 2428712
871 1.08342 0.21005000000000001 870 2428727
872 0.07111 0.20575 871 2428731
873 0.41829 0.20395 872 2428738
874 0.16525 0.20185 873 2428740
875 0.04101 0.20115 874 2428741
876 0.30279 0.19990000000000002 875 2428749
877 1.6327 0.19325 876 2428769
878 0.55806 0.19685 876 2428773
879 0.43852 0.2134 868 2428779
880 0.47525 0.2499 860 2428783
881 0.12947 0.2471 880 2428788
882 0.88216 0.24265 881 2321893
883 0.62068 0.2361 882 2428800
884 0.06345 0.23315 883 2428801
885 0.22387 0.2455 881 2428803
886 0.63499 0.24175 885 2428810
887 0.45554 0.237 886 2428811
888 0.28189 0.2338 887 2428809
889 0.04337 0.23485 887 2428812
890 0.24445 0.2379 886 2428814
891 1.20738 0.23925000000000002 885 2428825
892 0.11149 0.23355 891 2428826
893 0.0642 0.23285 892 2428827
894 0.54812 0.2943 783 2428234
895 0.21564 0.29910000000000003 782 2428226
896 0.22794 0.29664999999999997 895 2428238
897 0.42476 0.29555 895 10563761
898 0.11753 0.29255 897 10795116
899 0.12619 0.2925 897 10795084
900 0.27693 0.29875 782 10563072
901 0.08041 0.29675 900 10794656
902 0.96274 0.29200000000000004 900 10794696
903 1.04483 0.3225 778 10793924
904 0.15933 0.31525000000000003 903 10793954
905 0.30381 0.3677 765 2428160
906 0.32089 0.3833 764 2428156
907 0.56885 0.40175 693 2427917
908 0.65202 0.39249999999999996 907 2427919
909 0.356 0.3947 907 2427923
910 2.99062 0.4072 691 2180400
911 1.28235 0.3749 910 2180402
912 1.3246 0.3569 911 2180404
913 0.84122 0.34255 912 2428857
914 1.68495 0.3268 913 10552473
915 0.88479 0.31135 914 2428868
916 0.38402 0.30405000000000004 915 2428942
917 0.24757 0.3005 916 2428945
918 0.81338 0.29464999999999997 917 2428957
919 0.72825 0.28635 918 2428960
920 0.22776 0.2813 919 2428961
921 0.06598 0.27975 920 2428962
922 0.9176 0.27545 920 10661279
923 0.21269 0.26975 922 10661286
924 0.08261 0.2704 922 10661292
925 1.02071 0.28485000000000005 918 2428983
926 0.65334 0.27615 925 2526916
927 0.32262 0.27780000000000005 925 2428989
928 1.05485 0.27085000000000004 927 2428991
929 0.29967 0.26415 928 2428996
930 0.17327 0.26475000000000004 928 2429738
931 0.64264 0.26085 930 2429742
932 1.2124 0.2582 930 2429754
933 1.48016 0.24585 932 10624776
934 0.40163 0.23745 933 6126366
935 0.25392 0.27485000000000004 927 2267123
936 1.82535 0.26470000000000005 935 2429020
937 3.02144 0.2425 936 2429046
938 1.35969 0.24960000000000002 936 2429058
939 0.66662 0.2405 938 2429064
940 0.73135 0.2402 938 2429070
941 0.85956 0.2334 940 2429075
942 0.69253 0.22694999999999999 941 2429078
943 0.65557 0.2271 941 2429087
944 0.04079 0.22425 943 2429088
945 0.91802 0.22044999999999998 944 2429101
946 0.74508 0.21395 945 2429102
947 0.27198 0.21005000000000001 946 2429105
948 0.23604 0.20815 947 2429109
949 0.04855 0.2071 948 2429110
950 0.28721 0.20585 949 2429111
951 1.33732 0.20005 950 10668136
952 1.33901 0.20005 950 2429139
953 0.5279 0.1935 952 2429143
954 0.04195 0.19515 952 2429144
955 0.57859 0.19305 954 2429151
956 1.58521 0.1859 955 2429167
957 0.99975 0.1878 955 11265921
958 0.19394 0.18385 957 11315215
959 0.04295 0.18435 957 11315629
960 0.84613 0.1815 959 11315631
961 0.48756 0.1773 960 11320937
962 0.20027 0.1782 960 11315680
963 0.08748 0.1773 962 10024231
964 0.10621 0.1767 963 11315697
965 0.07411 0.17615 964 6938768
966 0.05194 0.17575000000000002 965 11315816
967 0.31981 0.1746 966 10024400
968 0.33439 0.1726 967 11318317
969 0.8446 0.16915 968 11316121
970 0.62585 0.1649 969 11316163
971 1.56326 0.15889999999999999 970 11316377
972 0.6666 0.15295 971 11316450
973 1.23606 0.1481 972 11316498
974 0.42683 0.144 973 4035530
975 0.11356 0.1427 974 11316506
976 0.07319 0.14279999999999998 974 11316845
977 0.11386 0.14235 976 11316524
978 0.30296 0.1504 972 11316461
979 0.42569 0.16194999999999998 970 1981911
980 1.50782 0.1711 966 11315846
981 0.04002 0.16649999999999998 980 11318476
982 1.1852 0.1631 981 11318548
983 0.2008 0.15925 982 11318554
984 0.23076 0.15805000000000002 983 5966231
985 0.32914 0.15655000000000002 984 11318564
986 0.12141 0.15710000000000002 984 11318624
987 0.15453 0.15825 983 2081530
988 0.21555 0.1658 981 11318489
989 0.08068 0.1664 980 11318485
990 0.87685 0.17375000000000002 964 11320276
991 0.04016 0.17095 990 11315703
992 0.98217 0.18109999999999998 959 11320995
993 1.07781 0.1747 992 11321101
994 0.04283 0.17785 992 11321043
995 0.66758 0.17565 994 11321017
996 0.47391 0.20515 949 2429172
997 0.4901 0.20165 996 2429175
998 0.59263 0.20129999999999998 996 2429181
999 0.78609 0.19645 998 2429192
1000 0.25093 0.19829999999999998 998 2429200
1001 0.25964 0.1965 1000 2429202
1002 0.07228 0.19715 1000 2429203
1003 0.23013 0.21589999999999998 945 2429206
1004 3.43935 0.2026 1003 11608275
1005 0.49122 0.1886 1004 2429277
1006 0.43932 0.18555 1005 2429276
1007 0.04032 0.184 1006 2429275
1008 0.19703 0.18325000000000002 1007 2429252
1009 1.25337 0.17870000000000003 1008 2429272
1010 1.22483 0.18025000000000002 1006 2429528
1011 1.07775 0.17315 1010 2429582
1012 0.72223 0.1678 1011 2429593
1013 0.27944 0.1691 1011 2429594
1014 0.30002 0.1674 1013 2429596
1015 0.75366 0.16615000000000002 1013 2429605
1016 0.09459 0.1637 1015 2429607
1017 0.26687 0.16265 1016 2429612
1018 0.4686 0.16065 1017 2429621
1019 1.56237 0.15525 1018 2429627
1020 0.46233 0.14995 1019 2429628
1021 0.95394 0.14645 1020 2429631
1022 0.14037 0.14375 1021 2429634
1023 0.92405 0.1412 1022 2429640
1024 0.27492 0.14275 1022 2429643
1025 1.21039 0.14579999999999999 1020 2429660
1026 0.26968 0.1504 1019 2429650
1027 0.30089 0.14895 1026 2429653
1028 0.08526 0.1495 1026 2429654
1029 0.56987 0.15785 1018 2429669
1030 0.07001 0.15610000000000002 1029 2429676
1031 0.91177 0.15355000000000002 1030 2429678
1032 0.50834 0.1499 1031 2429688
1033 0.18779 0.1507 1031 2599015
1034 0.35433 0.15495 1030 2429694
1035 0.16874 0.15360000000000001 1034 2429697
1036 0.70662 0.15134999999999998 1035 2429700
1037 0.05096 0.14939999999999998 1036 2429701
1038 0.29911 0.1524 1035 2429704
1039 0.80358 0.1496 1038 2429708
1040 0.1759 0.14715 1039 2429710
1041 0.70756 0.14495 1040 2429714
1042 0.59948 0.14525 1040 2429723
1043 0.11514 0.14350000000000002 1042 2429725
1044 0.43804 0.14215 1043 2429726
1045 0.07214 0.14095000000000002 1044 2429727
1046 0.07352 0.14305 1043 2429728
1047 0.06103 0.14275 1046 2429729
1048 0.423 0.1416 1047 2429732
1049 1.1379 0.1411 1042 2440005
1050 0.05997 0.13824999999999998 1049 2557981
1051 0.26455 0.15095 1038 2429735
1052 1.21064 0.17275000000000001 1010 2429538
1053 0.66923 0.16720000000000002 1052 2429543
1054 0.22254 0.16465000000000002 1053 1734138
1055 0.15774 0.16355 1054 2429548
1056 1.42722 0.15925 1055 2429563
1057 0.10623 0.15510000000000002 1056 2429564
1058 0.63582 0.15315 1057 2429570
1059 0.86458 0.1493 1058 2429576
1060 0.08218 0.1513 1058 2429578
1061 0.15931 0.15439999999999998 1057 2429569
1062 1.22256 0.18305 1005 2739331
1063 0.81061 0.18755 1004 2429288
1064 0.6737 0.18275000000000002 1063 2429291
1065 0.3945 0.17935 1064 2429293
1066 0.04826 0.18045 1064 2429294
1067 0.9712 0.1773 1066 2429305
1068 1.64507 0.16945 1067 2429325
1069 0.36968 0.1636 1068 2429326
1070 0.7584 0.1605 1069 2429342
1071 0.47504 0.16125 1069 10616308
1072 0.70978 0.16265000000000002 1068 2429350
1073 0.77901 0.15855000000000002 1072 2429358
1074 0.12423 0.15610000000000002 1073 2429360
1075 0.31367 0.15494999999999998 1074 2429362
1076 0.31747 0.1533 1075 2429367
1077 0.30185 0.155 1074 2429365
1078 0.87782 0.1583 1072 2429383
1079 0.92539 0.15350000000000003 1078 2429386
1080 0.55171 0.1497 1079 2429396
1081 0.18107 0.15545 1078 2429399
1082 0.31004 0.15415 1081 2429404
1083 1.2842 0.15005000000000002 1082 2429412
1084 0.27774 0.1526 1082 2429415
1085 0.37776 0.15095 1084 2429422
1086 0.21124 0.14945 1085 2429429
1087 0.32286 0.1481 1086 2429433
1088 0.98549 0.14755000000000001 1085 2429428
1089 0.35719 0.17320000000000002 1067 2429436
1090 0.29949 0.17120000000000002 1089 2429440
1091 0.5951 0.1686 1090 2429493
1092 1.09438 0.16715000000000002 1090 2429442
1093 0.25138 0.1633 1092 2429481
1094 0.9294 0.16145 1092 2429443
1095 0.28621 0.15810000000000002 1094 2429448
1096 1.12184 0.15435 1095 2429450
1097 0.0631 0.15125 1096 2429451
1098 0.17892 0.15065 1097 2429455
1099 0.2048 0.1509 1096 2429478
1100 0.19662 0.1568 1095 2429456
1101 0.09048 0.15605 1100 2429462
1102 0.35132 0.15489999999999998 1101 2429463
1103 0.52541 0.1526 1102 2429464
1104 0.44924 0.1501 1103 2526906
1105 0.71141 0.1494 1103 10616588
1106 0.22503 0.15339999999999998 1102 2429469
1107 0.29578 0.155 1101 2429471
1108 0.73878 0.15385 1101 2429474
1109 0.35637 0.15795 1094 11311646
1110 0.10645 0.1567 1109 10616666
1111 0.34827 0.16305 1092 10616675
1112 1.48088 0.17575 1066 2807734
1113 1.16664 0.16785 1112 2272221
1114 1.07957 0.1615 1113 10623564
1115 0.56493 0.296 917 2428953
1116 0.75035 0.29775 916 11314832
1117 1.30621 0.29895000000000005 915 10552258
1118 0.87739 0.28705 1117 2428893
1119 0.2241 0.28125 1118 2428898
1120 0.1321 0.2794 1119 2428935
1121 0.40191 0.27665 1120 2428938
1122 0.50537 0.2761 1120 2526975
1123 0.10289 0.273 1122 2804399
1124 1.4606 0.26539999999999997 1123 2818626
1125 0.92101 0.254 1124 2818669
1126 0.32812 0.25675 1124 2818734
1127 0.87258 0.2512 1126 2819050
1128 2.15042 0.2379 1127 2819374
1129 1.13428 0.224 1128 2819481
1130 0.31022 0.2273 1128 2819382
1131 0.88532 0.24325000000000002 1127 2819174
1132 0.12617 0.27290000000000003 1122 2526981
1133 0.51352 0.27745 1119 2428899
1134 0.44343 0.27254999999999996 1133 2428934
1135 0.62843 0.27165 1133 2428901
1136 0.08934 0.26805 1135 2428903
1137 0.29942 0.26705 1135 2428907
1138 0.06185 0.2653 1137 2428908
1139 1.3165 0.25875000000000004 1138 2428920
1140 0.59665 0.24975 1139 2428924
1141 0.30635 0.2511 1139 2428930
1142 0.057 0.26470000000000005 1138 2428911
1143 0.65152 0.28825 1117 2429793
1144 0.47275 0.31375 914 10552487
1145 1.08281 0.34104999999999996 912 1745262
1146 0.25114 0.33255 1145 2485729
1147 0.04236 0.3307 1146 2485730
1148 0.12569 0.32965 1147 10610281
1149 1.04839 0.32255 1148 2485799
1150 0.81564 0.31145 1149 2485815
1151 1.56767 0.29805 1150 2495588
1152 0.44749 0.3042 1150 2485838
1153 0.37082 0.2996 1152 2668234
1154 0.41875 0.2952 1153 2485898
1155 1.21903 0.28645 1154 2485906
1156 0.94615 0.2752 1155 2495541
1157 0.13501 0.2793 1155 10658671
1158 0.62187 0.27545 1157 10658644
1159 0.43729 0.29055 1154 2485968
1160 1.24931 0.2817 1159 2495592
1161 0.59697 0.2722 1160 2495608
1162 0.70743 0.26575 1161 2495609
1163 0.58314 0.25954999999999995 1162 2817726
1164 0.34631 0.25515 1163 2817754
1165 1.10668 0.2485 1164 2817831
1166 0.62222 0.24075 1165 2817880
1167 0.08205 0.23765 1166 2817897
1168 0.12395 0.2375 1166 2817931
1169 0.84247 0.23445 1166 2817983
1170 0.30347 0.24214999999999998 1165 2817859
1171 0.5483 0.251 1164 2817785
1172 0.3498 0.26065 1162 2495612
1173 0.19927 0.26825 1161 2495617
1174 0.04291 0.26705 1173 2495618
1175 0.8296 0.2628 1174 2370030
1176 0.21343 0.2658 1174 9842670
1177 0.04089 0.2646 1176 2495631
1178 0.81069 0.2605 1177 2269841
1179 0.75007 0.25315 1178 2524635
1180 0.06697 0.2494 1179 2524636
1181 0.04021 0.2489 1180 2524637
1182 0.30985 0.24830000000000002 1179 10653238
1183 1.69613 0.2395 1182 2593176
1184 0.04522 0.2319 1183 8642473
1185 0.04046 0.23154999999999998 1184 10747447
1186 0.4155 0.245 1182 6126542
1187 1.55196 0.25705 1177 2495656
1188 0.04139 0.24955 1187 2495673
1189 0.15899 0.24865 1188 2495675
1190 0.66198 0.24495 1189 2495689
1191 0.82709 0.23845 1190 2495700
1192 0.30402 0.2336 1191 2524630
1193 0.39022 0.2403 1190 2495723
1194 0.05185 0.2384 1193 2495724
1195 0.1076 0.2377 1194 2495727
1196 0.54182 0.2349 1195 2495729
1197 0.43204 0.2308 1196 2524640
1198 0.41134 0.23545 1195 2495740
1199 1.1232 0.24295 1189 2495684
1200 0.63714 0.28485 1159 2485991
1201 0.42816 0.2793 1200 10748472
1202 0.27554 0.2757 1201 10748482
1203 0.08624 0.27385 1202 10748499
1204 0.09819 0.2738 1202 10748517
1205 0.53588 0.27065 1204 10748589
1206 0.04016 0.2731 1204 10748521
1207 0.20283 0.27605 1201 10748490
1208 0.31624 0.27985 1200 2486362
1209 0.43996 0.276 1208 6041979
1210 0.51389 0.2712 1209 10748733
1211 0.52291 0.26605 1210 10748736
1212 0.37898 0.26170000000000004 1211 2468940
1213 0.38109 0.26170000000000004 1211 6041931
1214 0.12633 0.2593 1213 10749265
1215 0.21449 0.26755 1210 10749030
1216 0.08006 0.2734 1209 10748988
1217 1.15021 0.32195 1148 10343887
1218 0.37624 0.31279999999999997 1217 10749971
1219 1.0847 0.32385 1147 11223393
1220 1.81651 0.3537 911 11289135
1221 0.53303 0.3802 910 2180423
1222 0.20592 0.3749 1221 2427901
1223 0.38424 0.37070000000000003 1222 2427905
1224 0.24562 0.36629999999999996 1223 2427907
1225 0.13933 0.36365000000000003 1224 2427908
1226 0.66425 0.3582 1225 2427911
1227 0.1744 0.36150000000000004 1225 2427913
1228 0.17391 0.35914999999999997 1227 2427914
1229 14.16794 0.442 689 2525524
1230 7.97987 0.442 1229 2177647
1231 0.86491 0.43479999999999996 1230 2177669
1232 0.96645 0.41985 1231 2177673
1233 0.70424 0.40665 1232 2430111
1234 0.30001 0.39895 1233 2430138
1235 1.1566 0.3926 1233 2430124
1236 0.54761 0.38005 1235 2430133
1237 0.69766 0.4067 1232 2196274
1238 0.39177 0.39835 1237 2196284
1239 0.27835 0.3992 1237 2196287
1240 0.23148 0.42574999999999996 1231 2177677
1241 1.0911 0.41525 1240 10544068
1242 0.041 0.40625 1241 10542330
1243 5.67787 0.3667 1242 2429835
1244 1.20586 0.32030000000000003 1243 2429846
1245 0.84984 0.30820000000000003 1244 2429853
1246 0.81302 0.3084 1244 2429861
1247 1.08354 0.2977 1246 2429863
1248 0.32778 0.28995000000000004 1247 10582286
1249 1.50055 0.28385000000000005 1247 2429876
1250 0.15444 0.2752 1249 2429879
1251 0.29677 0.2729 1250 2429884
1252 0.08848 0.27555 1249 2429886
1253 1.05214 0.26985000000000003 1252 2429888
1254 0.58276 0.26180000000000003 1253 10827684
1255 0.56182 0.2619 1253 10806135
1256 0.57726 0.2565 1255 10806207
1257 0.52758 0.2514 1256 10806232
1258 0.11835 0.24845 1257 10806241
1259 0.13019 0.2532 1256 10806216
1260 0.68213 0.256 1255 10806539
1261 0.38945 0.25105 1260 10806543
1262 0.62896 0.24645 1261 4708507
1263 0.04243 0.2434 1262 10806769
1264 0.22894 0.24825 1261 10806745
1265 0.42832 0.25085 1260 10806560
1266 0.22506 0.27395 1252 2429899
1267 1.01012 0.26785000000000003 1266 2429906
1268 0.17767 0.27190000000000003 1266 2429909
1269 0.94042 0.26639999999999997 1268 2527080
1270 0.14193 0.26115 1269 10793524
1271 0.41958 0.2598 1269 10793639
1272 0.15281 0.2571 1271 10793641
1273 0.64576 0.26785000000000003 1268 2429924
1274 0.42128 0.26265 1273 2429925
1275 0.55949 0.25795 1274 2429929
1276 0.19706 0.25965 1274 2429932
1277 1.07686 0.25955 1273 2429942
1278 0.93803 0.2501 1277 2173592
1279 0.08329 0.24545 1278 2173617
1280 0.21696 0.24415 1279 10746467
1281 1.11605 0.23835 1280 10746514
1282 0.91378 0.22970000000000002 1281 10746970
1283 0.22723 0.23255 1281 10746933
1284 0.14095 0.23099999999999998 1283 10746591
1285 0.34108 0.22899999999999998 1284 2317370
1286 0.04319 0.2274 1285 10746735
1287 0.36353 0.2289 1284 10746649
1288 0.04805 0.2272 1287 10746663
1289 0.78168 0.2508 1277 2429941
1290 1.53143 0.2405 1289 2429964
1291 0.09403 0.23345 1290 2429965
1292 0.26523 0.23195 1291 2429967
1293 1.02923 0.2266 1292 2429975
1294 0.37589 0.22925 1292 2429976
1295 1.18271 0.22295 1294 10660095
1296 1.71824 0.22605 1291 10745089
1297 0.19832 0.21825 1296 10745304
1298 0.24283 0.21805 1296 10745266
1299 0.65695 0.21645 1296 10745405
1300 1.56949 0.2081 1299 6317473
1301 0.37742 0.20095000000000002 1300 10745675
1302 0.65021 0.1973 1301 10745780
1303 0.1723 0.19440000000000002 1302 10745826
1304 0.28256 0.19285 1303 10746040
1305 0.11721 0.1992 1301 2738736
1306 0.1857 0.2132 1299 10745419
1307 0.04001 0.21234999999999998 1306 10745423
1308 0.23891 0.2328 1290 2429983
1309 0.52435 0.22965000000000002 1308 2429991
1310 0.35725 0.22605 1309 2429994
1311 0.77255 0.2215 1310 2299980
1312 0.35947 0.21700000000000003 1311 2430000
1313 0.34642 0.2232 1310 2430001
1314 0.1408 0.22125 1313 2430040
1315 0.69825 0.21795 1314 2430046
1316 0.38357 0.21915 1314 2430050
1317 1.62009 0.2115 1316 2430071
1318 0.10351 0.2172 1316 2430056
1319 0.13617 0.2163 1318 2430058
1320 3.2476 0.20965 1313 2430038
1321 1.30255 0.22225 1309 10746340
1322 0.33902 0.2457 1289 10657299
1323 2.48088 0.29035 1246 10756692
1324 0.16589 0.27615 1323 10756698
1325 3.39566 0.26080000000000003 1323 10761121
1326 0.33855 0.2431 1325 10761474
1327 0.17507 0.24085 1326 10756786
1328 0.13193 0.2395 1327 10756815
1329 1.66264 0.2319 1328 10757098
1330 1.10577 0.22055 1329 6323582
1331 0.26544 0.21515 1330 10793190
1332 0.53771 0.22275 1329 2334600
1333 0.17886 0.21989999999999998 1332 10757132
1334 1.54298 0.2133 1333 10757684
1335 0.32837 0.2062 1334 10757931
1336 0.92716 0.2017 1335 5991049
1337 0.12831 0.19795000000000001 1336 10758039
1338 0.41099 0.19605 1337 10766566
1339 0.30477 0.19355 1338 10766585
1340 0.40207 0.19324999999999998 1338 10758048
1341 0.39842 0.1961 1337 10767005
1342 0.44076 0.1932 1341 2358044
1343 0.11325 0.1913 1342 10758170
1344 0.22035 0.19014999999999999 1343 10758199
1345 1.47476 0.18465 1344 10758550
1346 0.72149 0.18705 1344 10758787
1347 0.4443 0.18325 1346 10787390
1348 0.59331 0.17995 1347 10787420
1349 2.01355 0.17845 1346 10775883
1350 0.33634 0.1712 1349 10758935
1351 0.04346 0.17004999999999998 1350 10758919
1352 1.11261 0.16670000000000001 1351 10782534
1353 0.61676 0.1618 1352 10782536
1354 0.18002 0.1596 1353 10782703
1355 1.13646 0.15705 1353 10783611
1356 0.71663 0.15215 1355 10783616
1357 0.88516 0.1481 1356 2360224
1358 0.57026 0.14450000000000002 1357 10785761
1359 0.63941 0.1416 1358 10786106
1360 0.27362 0.14245000000000002 1358 10785822
1361 0.08439 0.1416 1360 10785827
1362 0.16092 0.14550000000000002 1357 10784545
1363 0.61818 0.1436 1362 10783875
1364 1.03886 0.1426 1362 10796063
1365 0.1479 0.13974999999999999 1364 21595661
1366 0.37047 0.13924999999999998 1364 10796101
1367 0.19292 0.13795000000000002 1366 10796141
1368 0.24321 0.1497 1356 10783671
1369 0.46289 0.14795000000000003 1368 10786674
1370 0.20086 0.1486 1368 10786705
1371 0.46059 0.1528 1355 10783700
1372 0.46262 0.1622 1352 10782581
1373 0.29738 0.1601 1372 10782613
1374 0.12043 0.1606 1372 10782667
1375 0.99086 0.16705 1351 10776298
1376 1.34113 0.1605 1375 10776311
1377 1.16944 0.15375 1376 6026889
1378 0.14318 0.15034999999999998 1377 5700373
1379 0.16154 0.1496 1378 10780429
1380 1.03527 0.14665 1379 2736673
1381 0.29725 0.14845 1379 10780627
1382 0.99479 0.14525 1381 5630875
1383 0.98892 0.1405 1382 10780675
1384 0.48146 0.1371 1383 10781490
1385 0.61557 0.13679999999999998 1383 10780864
1386 0.93729 0.13335 1385 10780906
1387 0.62835 0.12995 1386 10780971
1388 0.3825 0.13045 1386 10781038
1389 0.19262 0.13495000000000001 1385 10781126
1390 1.09557 0.14024999999999999 1382 10781605
1391 1.05256 0.14515 1381 10781707
1392 0.68962 0.155 1376 10780188
1393 0.55202 0.16265000000000002 1375 6003991
1394 0.73213 0.1591 1393 11085165
1395 0.44567 0.15594999999999998 1394 2680869
1396 1.11794 0.15189999999999998 1395 10776556
1397 0.22334 0.14845 1396 10777206
1398 0.04281 0.1478 1397 10777137
1399 0.0898 0.14745 1398 10778564
1400 0.28764 0.14650000000000002 1399 10777261
1401 0.05285 0.14565 1400 2755149
1402 0.3555 0.14465 1401 10778094
1403 0.09903 0.14355 1402 10777780
1404 0.12308 0.14305 1403 10777342
1405 0.12424 0.14250000000000002 1404 10777562
1406 0.51054 0.14100000000000001 1405 10777396
1407 0.65358 0.14125 1404 10777692
1408 1.51811 0.14400000000000002 1398 10777162
1409 0.27699 0.1397 1408 10779204
1410 0.24238 0.13974999999999999 1408 10779309
1411 0.87838 0.1372 1410 10779518
1412 0.20874 0.13474999999999998 1411 6320050
1413 0.15972 0.13395 1412 2744649
1414 1.14656 0.1311 1413 11215032
1415 0.28044 0.12805 1414 2865882
1416 0.20072 0.12705 1415 10779762
1417 0.16842 0.12825 1414 10779690
1418 0.04042 0.1335 1413 10779589
1419 0.04016 0.1333 1418 10779590
1420 0.08746 0.1341 1412 10779542
1421 0.16308 0.13885 1410 11215270
1422 0.47891 0.13740000000000002 1421 10779373
1423 0.08929 0.1361 1422 2331431
1424 0.12638 0.136 1422 10779408
1425 1.2467 0.14485 1397 10779933
1426 1.27925 0.14584999999999998 1396 2737055
1427 1.59958 0.1507 1395 9145145
1428 0.12711 0.14629999999999999 1427 10776443
1429 0.36704 0.15615 1394 11085172
1430 0.09451 0.15495 1429 11085177
1431 0.84451 0.16775 1350 6320014
1432 0.04291 0.16515000000000002 1431 10787192
1433 0.56315 0.18905 1343 10787705
1434 0.83919 0.18445 1433 10787751
1435 0.83217 0.1845 1433 6001973
1436 0.91462 0.17895 1435 2569633
1437 0.503 0.17454999999999998 1436 10788238
1438 0.7995 0.17065 1437 10788259
1439 0.14605 0.17254999999999998 1437 2307332
1440 1.18592 0.16865000000000002 1439 10788350
1441 0.34619 0.16425 1440 4580290
1442 0.0453 0.16315000000000002 1441 10788361
1443 0.59591 0.20284999999999997 1335 10757978
1444 0.4787 0.199 1443 2744375
1445 0.34659 0.1961 1444 10792172
1446 0.04006 0.19474999999999998 1445 10792176
1447 0.17037 0.2001 1443 10792315
1448 0.45442 0.21745 1333 10757153
1449 0.65513 0.2132 1448 10757181
1450 0.34351 0.2094 1449 10757191
1451 1.78441 0.2042 1449 10757277
1452 0.85636 0.19474999999999998 1451 10757299
1453 0.40779 0.2141 1448 10757230
1454 0.38894 0.23725000000000002 1328 10756861
1455 1.31975 0.31965 1243 1950112
1456 1.93834 0.30095000000000005 1455 10539634
1457 0.39347 0.28800000000000003 1456 1950065
1458 0.16747 0.28500000000000003 1457 1950061
1459 1.3044 0.2774 1458 1949952
1460 1.30845 0.26435 1459 1949939
1461 0.48918 0.25570000000000004 1460 1949929
1462 0.67915 0.2503 1461 1949919
1463 0.91743 0.24315 1462 1949912
1464 0.22379 0.23815 1463 1949909
1465 0.04051 0.237 1464 1949908
1466 2.58045 0.2263 1465 1949503
1467 0.40048 0.21425 1466 1949502
1468 0.80294 0.2097 1467 1949493
1469 0.59204 0.20450000000000002 1468 1949482
1470 2.40149 0.1941 1469 1949446
1471 0.44695 0.18445 1470 1949441
1472 0.53191 0.18130000000000002 1471 1949427
1473 0.59727 0.17775000000000002 1472 1949418
1474 0.51619 0.17435 1473 1949413
1475 0.4592 0.17145 1474 1949409
1476 0.85742 0.1676 1475 1949395
1477 0.58432 0.16344999999999998 1476 2173236
1478 0.26085 0.1611 1477 5945663
1479 0.93456 0.15785 1478 10729853
1480 0.56916 0.15885 1478 6158058
1481 0.51296 0.15594999999999998 1480 10730640
1482 2.27645 0.14884999999999998 1481 10730236
1483 0.75377 0.1679 1475 2822135
1484 0.0728 0.16549999999999998 1483 2822141
1485 0.14919 0.16485 1484 2822237
1486 0.62588 0.16265 1485 2822280
1487 0.41143 0.1598 1486 2823823
1488 0.04346 0.15855000000000002 1487 2823853
1489 0.08281 0.1642 1485 2822445
1490 0.90222 0.17320000000000002 1473 2267392
1491 0.47911 0.1691 1490 2823382
1492 0.79467 0.16544999999999999 1491 2823502
1493 0.58138 0.184 1470 1949448
1494 0.14258 0.18165 1493 1949449
1495 0.98959 0.17815 1494 1949454
1496 0.1643 0.1807 1494 1949455
1497 0.58567 0.17835 1496 1949462
1498 0.50887 0.17859999999999998 1496 1949470
1499 0.21589 0.2059 1468 1949497
1500 0.08738 0.20475 1499 1949499
1501 0.32223 0.21145 1467 10536122
1502 1.26716 0.211 1466 1949534
1503 1.18548 0.20195 1502 2529256
1504 0.468 0.20450000000000002 1502 1949546
1505 0.85775 0.19975 1504 1949552
1506 0.18878 0.19605 1505 1949553
1507 1.26317 0.19115 1506 1949570
1508 0.4732 0.1938 1506 1949581
1509 0.45395 0.19065 1508 1949778
1510 0.05025 0.18895 1509 1949779
1511 0.05682 0.1886 1510 1949780
1512 0.98559 0.1852 1511 10659928
1513 2.46008 0.18065 1511 1949833
1514 0.70821 0.1708 1513 1949837
1515 0.46625 0.16735 1514 1949845
1516 0.26933 0.1679 1514 1949849
1517 0.62768 0.1653 1516 1949850
1518 0.20103 0.16294999999999998 1517 1949854
1519 0.08972 0.16215 1518 1949856
1520 0.26454 0.16115 1519 1949863
1521 0.06328 0.16025 1520 1949864
1522 0.11121 0.1598 1521 1949865
1523 0.34234 0.15915 1521 2353981
1524 0.09445 0.15795 1523 10659876
1525 0.28524 0.1627 1517 10689027
1526 2.02699 0.1615 1516 1949885
1527 1.04603 0.1854 1510 1949799
1528 0.38416 0.18075 1527 1949801
1529 0.15875 0.179 1528 1949803
1530 0.4722 0.17804999999999999 1528 10650525
1531 1.04163 0.18569999999999998 1509 6320531
1532 0.07312 0.18205 1531 10522076
1533 1.33691 0.18775 1508 1949585
1534 1.61299 0.17830000000000001 1533 1949597
1535 0.20151 0.17270000000000002 1534 1949598
1536 0.16894 0.1716 1535 1949755
1537 0.44094 0.1698 1536 1949760
1538 0.26062 0.16775 1537 1949764
1539 0.54823 0.16544999999999999 1538 1949775
1540 0.45922 0.16570000000000001 1538 1949771
1541 0.42829 0.172 1534 10521573
1542 0.8794 0.16815 1541 1949625
1543 0.43147 0.1644 1542 1949627
1544 0.38747 0.16210000000000002 1543 1949632
1545 0.15864 0.16060000000000002 1544 1949636
1546 1.80966 0.16065000000000002 1542 1949652
1547 0.30534 0.15489999999999998 1546 1949655
1548 2.36843 0.1497 1546 1949677
1549 0.25655 0.1431 1548 1949685
1550 0.05449 0.14234999999999998 1549 1949687
1551 0.26352 0.1416 1550 1949693
1552 1.11906 0.1384 1551 1949720
1553 0.67562 0.1343 1552 1949722
1554 0.36954 0.132 1553 1949728
1555 0.21236 0.13235 1553 10675793
1556 0.04375 0.1318 1555 10518852
1557 0.17599 0.13540000000000002 1552 1949732
1558 1.69178 0.13135000000000002 1557 1949738
1559 0.04198 0.1276 1558 1949739
1560 0.41406 0.1341 1557 1949745
1561 0.14152 0.13290000000000002 1560 1949748
1562 0.42495 0.13165 1561 1949752
1563 1.22408 0.12995 1561 1746374
1564 0.31004 0.12669999999999998 1563 1746390
1565 0.18775 0.12569999999999998 1564 1746392
1566 0.10415 0.1251 1565 1746394
1567 0.35187 0.1266 1563 10519222
1568 0.07516 0.12575 1567 10519223
1569 0.14135 0.1253 1568 10519235
1570 1.20077 0.1306 1560 10707954
1571 0.22711 0.12755 1570 10708180
1572 0.18051 0.12669999999999998 1571 10708121
1573 0.53288 0.12525 1572 2612143
1574 0.08286 0.124 1573 10708207
1575 0.08068 0.12614999999999998 1572 10708132
1576 0.1132 0.1278 1570 6121448
1577 0.67831 0.1394 1551 1949694
1578 0.29729 0.13715 1577 1949697
1579 0.71731 0.13490000000000002 1578 1949703
1580 0.07685 0.1363 1578 1949704
1581 1.35326 0.13315 1580 10659106
1582 0.84241 0.1417 1548 2557633
1583 0.63118 0.16885 1541 10521627
1584 0.22844 0.16635 1583 1949610
1585 0.91316 0.16444999999999999 1583 10709167
1586 1.14502 0.1588 1585 10709242
1587 0.0895 0.16165 1585 10709175
1588 1.12593 0.1916 1506 1949561
1589 0.84887 0.1998 1504 2516604
1590 0.05371 0.1966 1589 2525300
1591 0.44227 0.23495 1465 10709567
1592 0.27885 0.2319 1591 10709580
1593 0.04365 0.23049999999999998 1592 10709584
1594 1.02053 0.2427 1462 2803888
1595 0.37288 0.23659999999999998 1594 2803889
1596 0.5953 0.25070000000000003 1461 1949935
1597 0.91411 0.25375000000000003 1460 10709512
1598 3.43806 0.2547 1459 1949977
1599 1.06549 0.2342 1598 1950000
1600 0.1452 0.2291 1599 1949999
1601 0.48091 0.2277 1599 2528128
1602 0.11267 0.22525 1601 1950003
1603 0.75642 0.2218 1602 1950010
1604 0.99991 0.21495 1603 1950024
1605 0.25496 0.2101 1604 1950028
1606 0.54127 0.20905 1604 1950031
1607 1.03182 0.2207 1602 11277637
1608 0.95599 0.2219 1601 2557740
1609 0.67499 0.2155 1608 2739830
1610 2.08265 0.20525 1609 2829931
1611 1.20989 0.2084 1609 2557759
1612 1.32753 0.1992 1611 2557897
1613 0.37482 0.20255 1611 2557773
1614 0.96025 0.19779999999999998 1613 10603942
1615 0.7471 0.19190000000000002 1614 2804167
1616 0.35284 0.1882 1615 2559354
1617 0.78101 0.1845 1616 2559358
1618 0.12285 0.18159999999999998 1617 2559361
1619 0.31595 0.186 1616 10651644
1620 0.36452 0.18380000000000002 1619 2559378
1621 1.02766 0.18605 1615 2804169
1622 0.94436 0.1797 1621 2830219
1623 0.195 0.18205 1621 10604269
1624 1.47228 0.1846 1615 2804145
1625 1.5358 0.17515 1624 2559403
1626 0.04483 0.17035 1625 2559405
1627 0.18686 0.16965 1626 2804131
1628 0.0476 0.16895 1627 2559424
1629 0.0604 0.16865000000000002 1628 2804754
1630 0.20833 0.1679 1629 2559442
1631 1.78755 0.1623 1630 2559694
1632 0.57114 0.1558 1631 2559700
1633 2.12476 0.14895 1632 2559831
1634 0.24073 0.14305 1633 2559840
1635 0.18714 0.1538 1632 2559713
1636 0.56829 0.16565000000000002 1630 10598799
1637 0.52995 0.16575 1630 10599289
1638 0.3684 0.1632 1637 10599137
1639 0.13103 0.16185 1638 10599148
1640 0.57776 0.16260000000000002 1637 10599299
1641 0.30186 0.1602 1640 10599717
1642 0.17949 0.1605 1640 10599458
1643 0.3532 0.15905 1642 2559437
1644 0.3394 0.1572 1643 2559751
1645 0.16879 0.15585 1644 10686028
1646 0.59228 0.15475 1644 2559757
1647 0.51203 0.15184999999999998 1646 2559765
1648 0.3256 0.1497 1647 2559785
1649 0.38912 0.1479 1648 2559845
1650 0.25945 0.14825 1648 2559804
1651 0.23855 0.14989999999999998 1647 2559792
1652 0.2947 0.1524 1646 2559782
1653 0.74303 0.15615 1643 10697111
1654 1.60209 0.1659 1625 2559410
1655 0.22327 0.1607 1654 2559726
1656 1.02851 0.1585 1654 2831619
1657 0.49843 0.1544 1656 2831637
1658 0.69841 0.19205 1614 10697227
1659 0.40194 0.18835000000000002 1658 10697256
1660 0.16482 0.18914999999999998 1658 10697266
1661 0.07262 0.2009 1613 10627227
1662 0.2825 0.1996 1661 2557826
1663 0.17268 0.198 1662 2557836
1664 0.11643 0.197 1663 2557839
1665 2.26675 0.18905 1664 10626180
1666 0.17715 0.18095 1665 2559305
1667 0.08617 0.1963 1664 2557844
1668 0.47932 0.19435000000000002 1667 2557876
1669 1.14622 0.1921 1667 2559320
1670 0.52085 0.1865 1669 2559321
1671 0.49262 0.18325 1670 10650683
1672 0.35156 0.18055 1671 10650689
1673 0.20041 0.18414999999999998 1670 11277641
1674 0.79557 0.18565 1669 10707438
1675 0.13952 0.18265 1674 10707447
1676 0.18353 0.1825 1674 10707458
1677 1.70532 0.1928 1662 2829650
1678 1.19818 0.2084 1609 6321204
1679 0.05714 0.2037 1678 10697396
1680 0.6636 0.21555 1608 10605168
1681 0.39849 0.21145 1680 10605184
1682 0.06173 0.21275 1680 11157021
1683 0.22753 0.23775000000000002 1598 1949979
1684 0.15041 0.23615 1683 1949988
1685 1.5148 0.2292 1684 2528974
1686 0.77945 0.23349999999999999 1683 1949986
1687 1.55378 0.2779 1457 1950072
1688 0.62227 0.26685 1687 1950073
1689 2.25474 0.25334999999999996 1688 2557615
1690 0.20144 0.242 1689 2557623
1691 0.4458 0.26165 1688 1950079
1692 0.19201 0.2586 1691 1950081
1693 0.87976 0.2536 1692 2558076
1694 0.40342 0.2477 1693 2558084
1695 1.73923 0.23835 1694 2558112
1696 0.50691 0.22870000000000001 1695 2558259
1697 0.1022 0.2262 1696 2558260
1698 0.74366 0.2228 1697 2558265
1699 1.11518 0.22135 1697 11222057
1700 0.43745 0.21525 1699 2558298
1701 0.92563 0.2101 1700 2804068
1702 0.26416 0.20565 1701 2558721
1703 0.9194 0.2014 1702 2558725
1704 0.57065 0.1961 1703 2558728
1705 0.33848 0.19295 1704 2558730
1706 0.14813 0.1913 1705 2559471
1707 0.50188 0.18914999999999998 1706 2559531
1708 0.20924 0.1901 1706 2559478
1709 0.15054 0.19755 1703 2558733
1710 0.41333 0.2032 1702 2558738
1711 0.37992 0.20035 1710 2558760
1712 0.04159 0.19885 1711 2558769
1713 0.04391 0.19855 1712 2558771
1714 1.96144 0.19174999999999998 1713 2559558
1715 0.95401 0.18205 1714 2804855
1716 0.12619 0.17859999999999998 1715 2804856
1717 0.85056 0.1824 1714 2559579
1718 0.19498 0.17905 1717 2559594
1719 1.23972 0.1759 1717 2559882
1720 0.40833 0.1709 1719 2559900
1721 0.61848 0.17025 1719 2559896
1722 0.73143 0.19585 1713 2558787
1723 2.68452 0.1846 1722 2559499
1724 2.05818 0.16985 1723 2559528
1725 0.19553 0.19265 1722 2804048
1726 0.37287 0.19075 1725 2558814
1727 2.48025 0.18159999999999998 1726 2558898
1728 0.45282 0.188 1726 2558827
1729 0.21958 0.21605000000000002 1699 2558315
1730 0.23135 0.2143 1729 2558327
1731 0.17599 0.2301 1695 2558120
1732 0.08589 0.22904999999999998 1731 2558121
1733 0.11633 0.22820000000000001 1732 2276411
1734 0.36472 0.2262 1733 2558136
1735 0.20035 0.2239 1734 2558145
1736 0.10623 0.2227 1735 2558150
1737 0.49904 0.2203 1736 2558164
1738 0.48867 0.22115 1735 2804693
1739 0.58217 0.2263 1732 10636620
1740 0.10853 0.22344999999999998 1739 2681774
1741 0.10255 0.22260000000000002 1740 10636626
1742 0.38866 0.22235 1739 10636643
1743 0.50352 0.24725 1693 2804079
1744 0.79442 0.254 1692 2557559
1745 0.5588 0.26715 1687 2357277
1746 0.19393 0.26345 1745 10710732
1747 0.46335 0.2603 1746 10744770
1748 0.93537 0.2581 1746 10710780
1749 0.1105 0.2532 1748 10710786
1750 0.32323 0.2522 1748 10711108
1751 0.54041 0.24824999999999997 1750 10710829
1752 0.06847 0.2455 1751 10710854
1753 0.56497 0.2433 1751 2732958
1754 1.09294 0.23609999999999998 1753 10711652
1755 0.30378 0.23015 1754 10711710
1756 0.41843 0.2272 1755 5984538
1757 0.91762 0.22185 1756 10735438
1758 0.57495 0.21595 1757 10736482
1759 0.47239 0.2119 1758 10736488
1760 0.4088 0.2086 1759 10736499
1761 0.29221 0.20600000000000002 1760 10736872
1762 0.1757 0.20425 1761 10736906
1763 0.1918 0.2042 1761 10736893
1764 0.36875 0.20575 1760 10737000
1765 0.14467 0.20385 1764 10737008
1766 0.40453 0.2029 1764 10737023
1767 0.30146 0.20900000000000002 1759 10736831
1768 0.22843 0.21284999999999998 1758 2732908
1769 0.86039 0.20875 1768 6326435
1770 1.41842 0.21989999999999998 1756 10712289
1771 0.1364 0.21375 1770 10734895
1772 0.46636 0.21145 1771 10737622
1773 0.11144 0.20929999999999999 1772 10737808
1774 0.9558 0.2062 1772 10738037
1775 0.7537 0.2 1774 10738042
1776 0.16027 0.19675 1775 10738064
1777 0.09222 0.197 1775 10738073
1778 0.22266 0.19590000000000002 1777 17625135
1779 0.42136 0.19365 1778 10739743
1780 0.89081 0.19365 1777 10738407
1781 0.16171 0.19005 1780 4580748
1782 0.68407 0.18725 1781 10738672
1783 0.40602 0.20124999999999998 1774 10740630
1784 0.09673 0.19945000000000002 1783 10740643
1785 1.16495 0.19505 1784 2666154
1786 0.04919 0.19085000000000002 1785 10743625
1787 0.48445 0.1981 1783 5824523
1788 0.49695 0.19465 1787 10740786
1789 0.16607 0.2126 1771 10737634
1790 0.48995 0.21239999999999998 1770 10737228
1791 0.47961 0.21245 1770 10737370
1792 0.9083 0.22185 1756 10735063
1793 0.14228 0.25005 1750 10711145
1794 0.91539 0.24530000000000002 1793 10731292
1795 0.44017 0.2393 1794 10733870
1796 0.59426 0.23485 1795 10733885
1797 1.28649 0.2357 1794 10731423
1798 0.57321 0.22785 1797 10732628
1799 0.64775 0.22754999999999997 1797 10731563
1800 0.15109 0.2243 1799 10731886
1801 0.94557 0.21995 1800 5815128
1802 0.11143 0.21575 1801 10732905
1803 0.56978 0.21315 1802 10732906
1804 0.38246 0.20955000000000001 1803 10732926
1805 0.43895 0.20934999999999998 1803 10733177
1806 0.99008 0.21155000000000002 1802 2353499
1807 0.81711 0.20485 1806 10733346
1808 0.23242 0.24835000000000002 1793 2264233
1809 0.99023 0.30615000000000003 1455 2558058
1810 0.0825 0.4053 1242 2429804
1811 0.40339 0.4016 1810 2430083
1812 2.47905 0.38065000000000004 1811 2804828
1813 0.29776 0.39625 1811 2430098
1814 0.66876 0.40149999999999997 1241 10544070
1815 0.14189 0.3953 1814 10755981
1816 0.62441 0.39175 1814 10756064
1817 0.80236 0.442 1 2602480
1818 0.53589 0.442 1 2602486
1819 7.07008 0.442 0 20799546
1820 2.07516 0.42515000000000003 1819 2726325
1821 3.93584 0.38 1820 2178367
1822 1.42932 0.3425 1821 2178377
1823 0.79968 0.3284 1822 2178380
1824 1.26149 0.31605 1823 3282611
1825 0.41437 0.3062 1824 3316430
1826 0.93296 0.29864999999999997 1825 3316458
1827 0.13223 0.29274999999999995 1826 3316466
1828 1.31731 0.28505 1827 3317003
1829 0.50183 0.27555 1828 3317029
1830 0.09998 0.2776 1828 3317011
1831 0.4572 0.28955 1827 3316526
1832 0.21977 0.28595000000000004 1831 3316539
1833 0.17746 0.28385 1832 3316572
1834 0.32917 0.2812 1833 3316612
1835 0.84622 0.2752 1834 3316613
1836 0.09124 0.27044999999999997 1835 3316616
1837 0.77646 0.2671 1835 3316619
1838 0.20344 0.2699 1835 3316690
1839 0.31237 0.26735 1838 3316704
1840 0.24536 0.2646 1839 3316785
1841 0.07027 0.2631 1840 3316787
1842 1.1098 0.25755 1841 3316933
1843 0.07057 0.26244999999999996 1841 3316829
1844 0.49684 0.26105 1840 3316798
1845 0.52435 0.26635 1838 3316732
1846 1.1534 0.27370000000000005 1834 3316671
1847 0.38115 0.266 1846 3316676
1848 0.15835 0.2671 1846 3316681
1849 1.22812 0.27664999999999995 1833 3316597
1850 0.59525 0.2817 1832 3321174
1851 0.77136 0.2747 1850 3322035
1852 0.17197 0.2777 1850 3321179
1853 0.59142 0.2903 1826 5725784
1854 0.16069 0.3029 1825 3316439
1855 0.27784 0.307 1824 2534271
1856 0.05609 0.30505000000000004 1855 3282651
1857 0.85098 0.30000000000000004 1856 3283978
1858 0.87923 0.29055 1857 3283981
1859 0.23404 0.28454999999999997 1858 3283982
1860 1.19044 0.2772 1859 3317411
1861 0.49085 0.28075 1859 3317428
1862 0.36341 0.27635 1861 3317436
1863 0.29338 0.27305 1862 2530813
1864 0.04512 0.27135 1863 3317440
1865 0.04091 0.2743 1862 3317442
1866 0.61864 0.271 1865 3317452
1867 0.59123 0.26505 1866 3317480
1868 0.2992 0.26645 1866 8261568
1869 0.04887 0.27385000000000004 1865 3317447
1870 0.6008 0.27515 1861 3307348
1871 0.87842 0.26780000000000004 1870 3321216
1872 0.13857 0.26280000000000003 1871 3356782
1873 0.5259 0.2596 1872 3307372
1874 0.12544 0.2565 1873 3356799
1875 0.20974 0.25495 1874 3356804
1876 0.08182 0.2536 1875 3356812
1877 2.17002 0.24435 1875 3356838
1878 0.57629 0.23225 1877 3356864
1879 0.10512 0.23425 1877 3356842
1880 0.23452 0.2328 1879 3356847
1881 0.11643 0.2313 1880 3356849
1882 0.34871 0.23035 1880 3356853
1883 2.2393 0.2459 1874 3182064
1884 0.88695 0.25925 1871 3365084
1885 0.11067 0.2852 1858 3283992
1886 0.72383 0.28085000000000004 1885 3284000
1887 0.16519 0.28375 1885 3317034
1888 0.32356 0.2812 1887 3293250
1889 0.48348 0.27705 1888 3317145
1890 0.14161 0.27385000000000004 1889 3317162
1891 0.34426 0.2714 1890 3317169
1892 1.34728 0.2665 1890 3317185
1893 0.57479 0.2572 1892 3317208
1894 0.29122 0.25315 1893 3317300
1895 0.64654 0.25155 1893 2532801
1896 0.06482 0.2483 1895 3317405
1897 2.64746 0.26975 1887 3317106
1898 0.12961 0.256 1897 3317112
1899 0.17123 0.29435 1857 7922139
1900 0.27393 0.3032 1856 3315057
1901 1.46838 0.2937 1900 3315447
1902 0.51907 0.28295000000000003 1901 3315452
1903 0.11226 0.27965 1902 3227971
1904 0.04045 0.27885000000000004 1903 3315455
1905 0.08234 0.28525 1901 3315463
1906 0.41691 0.28259999999999996 1905 3315464
1907 1.34167 0.27365 1906 3316386
1908 0.33875 0.27864999999999995 1906 3315860
1909 0.4001 0.2827 1905 3315475
1910 0.12281 0.27995000000000003 1909 3315484
1911 0.041 0.2791 1910 3315485
1912 0.04142 0.2787 1911 3315735
1913 0.5162 0.27585000000000004 1912 3293254
1914 0.32229 0.2716 1913 3315803
1915 1.13561 0.2645 1914 3315807
1916 0.47145 0.26765 1914 3315844
1917 1.25634 0.273 1910 3315489
1918 0.204 0.2657 1917 3315497
1919 0.36631 0.26295 1918 3315500
1920 0.08857 0.26075 1919 3315585
1921 0.33621 0.2587 1920 3315590
1922 1.55538 0.2531 1920 3315695
1923 0.4084 0.2627 1918 3315565
1924 0.25134 0.26544999999999996 1917 3315521
1925 1.25654 0.27425 1909 3315572
1926 1.26315 0.29475 1900 3315246
1927 0.37203 0.28585 1926 3315306
1928 0.05314 0.28755 1926 8306293
1929 2.30617 0.31955 1822 2178393
1930 0.80701 0.30125 1929 2178398
1931 0.12718 0.29600000000000004 1930 2542144
1932 1.14029 0.2892 1931 2542636
1933 0.08306 0.28265 1932 2542650
1934 0.20435 0.28115 1933 2542664
1935 1.16393 0.2742 1934 2542674
1936 0.09387 0.2796 1934 2542701
1937 0.32704 0.27745 1936 2542716
1938 0.9854 0.27085000000000004 1937 2542750
1939 0.12577 0.2653 1938 2542755
1940 0.48326 0.26239999999999997 1939 2542767
1941 1.5677 0.25285 1940 2543000
1942 0.32741 0.25855 1940 2542866
1943 0.88412 0.26049999999999995 1939 2542815
1944 1.30242 0.25034999999999996 1943 2542843
1945 0.55342 0.2537 1943 2542828
1946 1.38607 0.25935 1938 2542924
1947 0.93122 0.24855 1946 2542938
1948 1.18988 0.26985000000000003 1937 3314783
1949 0.09748 0.26345 1948 3314789
1950 1.0932 0.27665 1933 3282270
1951 0.7146 0.29145 1931 2542167
1952 1.21102 0.2813 1951 2544464
1953 0.5303 0.27235 1952 2544489
1954 0.91945 0.2652 1953 2544491
1955 1.29333 0.2547 1954 2544494
1956 0.13668 0.24805 1955 2544499
1957 2.71985 0.2358 1956 2739625
1958 1.21249 0.2194 1957 2812575
1959 1.92343 0.20750000000000002 1958 2812595
1960 1.06669 0.19665 1959 2812627
1961 0.04387 0.19274999999999998 1960 2812628
1962 0.5978 0.1906 1961 2812757
1963 0.12526 0.18819999999999998 1962 2812769
1964 1.59293 0.1827 1963 2812811
1965 0.49329 0.1761 1964 2813001
1966 0.5141 0.176 1964 2812840
1967 0.38241 0.18655 1963 2812784
1968 0.10826 0.19255 1960 2812636
1969 2.42143 0.18435 1968 5726421
1970 0.27578 0.19125 1968 2812660
1971 0.7488 0.18785000000000002 1970 2812741
1972 2.95874 0.18095 1970 2813058
1973 0.48887 0.17015 1972 2813083
1974 1.77926 0.19424999999999998 1959 8261573
1975 0.17882 0.18755 1974 8261572
1976 0.60688 0.18614999999999998 1974 8261579
1977 0.16056 0.18365 1976 8261581
1978 0.20681 0.1835 1976 8261584
1979 0.8594 0.21135 1958 2812619
1980 0.70454 0.22139999999999999 1957 2739639
1981 2.49337 0.20925 1980 2739703
1982 0.1254 0.2181 1980 2739647
1983 0.29024 0.21644999999999998 1982 2739657
1984 0.216 0.24645 1956 2739603
1985 0.42145 0.24680000000000002 1955 3315027
1986 0.92271 0.25634999999999997 1954 3284735
1987 1.2346 0.24645 1986 2544989
1988 0.15557 0.24025000000000002 1987 2545021
1989 0.75133 0.23635 1988 2545033
1990 0.207 0.23225 1989 7130661
1991 0.9456 0.22749999999999998 1990 2739569
1992 0.23688 0.23854999999999998 1988 2545055
1993 0.90271 0.23704999999999998 1987 2812678
1994 1.0223 0.22895 1993 2812713
1995 1.60559 0.2266 1993 2813102
1996 2.61789 0.2102 1995 2813253
1997 2.28777 0.1926 1996 3180414
1998 0.34956 0.21865 1995 2813137
1999 0.76599 0.21434999999999998 1998 2813192
2000 1.31682 0.2123 1998 2813198
2001 0.31126 0.2506 1986 3284737
2002 0.12561 0.2601 1954 3282009
2003 1.73304 0.25155 2002 3314933
2004 0.28437 0.24235 2003 3314940
2005 0.10173 0.24315 2003 3314964
2006 0.58092 0.24015 2005 3315019
2007 0.07071 0.2424 2005 3314983
2008 0.1354 0.2415 2007 3314995
2009 1.29654 0.2535 2002 3314819
2010 0.34631 0.24595 2009 3314822
2011 0.49141 0.24225000000000002 2010 3314843
2012 0.4138 0.2383 2011 3314845
2013 0.09468 0.23965 2011 3314850
2014 0.35676 0.2459 2009 3321432
2015 0.18397 0.2435 2014 3321445
2016 0.0809 0.24230000000000002 2015 3321449
2017 0.47199 0.23985 2016 3321486
2018 1.28955 0.2324 2017 3321928
2019 0.05967 0.22675 2018 3321929
2020 0.91706 0.23395 2017 3356771
2021 1.14401 0.26415 1953 3281866
2022 0.3516 0.25695 2021 3314792
2023 1.17277 0.25315 2021 3314799
2024 0.36319 0.2569 2021 3314806
2025 0.18636 0.27405 1952 2544519
2026 1.03005 0.26805 2025 2544551
2027 1.19026 0.25734999999999997 2026 2545300
2028 1.16548 0.2575 2026 3314803
2029 0.43293 0.2853 1951 2542193
2030 3.34001 0.26665 2029 2542236
2031 0.05427 0.25005 2030 2542238
2032 1.05467 0.24509999999999998 2031 2545088
2033 0.38843 0.2387 2032 2545116
2034 0.18613 0.2396 2032 3281724
2035 1.56889 0.24285 2031 2545172
2036 0.07911 0.2356 2035 2545179
2037 0.67862 0.2324 2036 2545182
2038 0.27281 0.2284 2037 2545186
2039 0.30687 0.22825 2037 7928866
2040 0.17343 0.23455 2036 2545191
2041 0.44983 0.24825000000000003 2030 2542268
2042 1.991 0.2376 2041 3281619
2043 0.60592 0.22655 2042 2543867
2044 0.5298 0.222 2043 2543900
2045 0.4499 0.2223 2043 2544328
2046 0.92219 0.21689999999999998 2045 2544349
2047 0.90457 0.20989999999999998 2046 2544360
2048 0.66844 0.2108 2046 3281516
2049 0.76616 0.2259 2042 3281627
2050 0.2825 0.2217 2049 3281634
2051 0.82027 0.21955 2049 2533225
2052 0.23458 0.24515 2041 2542280
2053 2.31934 0.23425 2052 2542290
2054 2.05515 0.21644999999999998 2053 2544434
2055 0.0943 0.20815 2054 2544438
2056 0.19054 0.22365 2053 3286580
2057 0.23451 0.22194999999999998 2056 3313218
2058 0.13901 0.22045 2057 3313236
2059 0.98233 0.21610000000000001 2058 3313244
2060 1.17797 0.20795 2059 3321972
2061 0.25092 0.2027 2060 3356449
2062 0.166 0.2012 2061 3356453
2063 0.44745 0.199 2062 3356461
2064 0.64759 0.19515 2063 3356483
2065 0.46108 0.19135 2064 3356488
2066 0.51376 0.19119999999999998 2064 3356517
2067 0.08974 0.1971 2063 3356475
2068 1.463 0.1955 2062 3356677
2069 1.38798 0.1987 2060 3356400
2070 0.43938 0.1923 2069 3356421
2071 0.6376 0.18869999999999998 2070 3356446
2072 0.61881 0.18875 2070 3356447
2073 1.55497 0.18864999999999998 2069 3365026
2074 0.37332 0.21089999999999998 2059 3313257
2075 0.04168 0.20934999999999998 2074 3313260
2076 0.04099 0.21975 2058 3313468
2077 0.29863 0.21844999999999998 2076 3313499
2078 0.84835 0.214 2077 3314755
2079 1.53052 0.2115 2077 3321677
2080 1.84609 0.2126 2076 3313560
2081 1.1355 0.21660000000000001 2057 3301271
2082 0.88211 0.2089 2081 2533042
2083 2.11867 0.21475 2056 3356690
2084 0.04051 0.20645000000000002 2083 3356691
2085 1.81902 0.20015 2083 3356727
2086 0.23776 0.19290000000000002 2085 3356730
2087 0.12503 0.19325 2085 3356729
2088 0.97581 0.2459 2030 3281717
2089 2.04311 0.28590000000000004 1930 3282126
2090 0.28072 0.2737 2089 3313198
2091 0.98349 0.2702 2089 3282154
2092 1.236 0.25939999999999996 2091 3282165
2093 0.19081 0.25265000000000004 2092 3312197
2094 0.75684 0.25005 2092 3312019
2095 0.4779 0.25135 2092 3312161
2096 1.43106 0.25849999999999995 2091 3312254
2097 0.18616 0.25085 2096 3312267
2098 0.86113 0.24614999999999998 2097 3312301
2099 0.54555 0.23995 2098 3312317
2100 2.32163 0.23254999999999998 2098 3307316
2101 0.5985 0.22039999999999998 2100 3312422
2102 0.12603 0.2175 2101 3312499
2103 1.03386 0.21305000000000002 2102 3312500
2104 1.29758 0.2044 2103 3312583
2105 0.04076 0.20895000000000002 2103 3312504
2106 0.73889 0.2064 2103 3312560
2107 0.34008 0.2157 2102 3312609
2108 0.11936 0.21395 2107 3312701
2109 2.5614 0.20505 2107 3312737
2110 0.55505 0.1938 2109 3312867
2111 0.59818 0.1899 2110 3312884
2112 1.17292 0.188 2110 3312956
2113 0.28048 0.1832 2112 3312978
2114 0.20435 0.195 2109 3312778
2115 1.13732 0.1905 2114 3312839
2116 1.38254 0.3428 1821 2541344
2117 2.42555 0.3194 2116 2541943
2118 1.4882 0.29669999999999996 2117 2541963
2119 0.08648 0.28805000000000003 2118 2541967
2120 0.17454 0.28665 2119 3286735
2121 0.04837 0.28545 2120 2542572
2122 1.72159 0.27645 2121 2542612
2123 0.1408 0.267 2122 2542613
2124 0.0937 0.26585000000000003 2123 2542615
2125 0.53988 0.26505 2122 7951313
2126 0.08511 0.30445 2117 2541984
2127 2.20468 0.29205000000000003 2126 5726541
2128 0.17721 0.303 2126 2542028
2129 1.72581 0.29259999999999997 2128 2542081
2130 0.55231 0.28035 2129 2739585
2131 0.37698 0.28125 2129 2542102
2132 0.15455 0.27849999999999997 2131 2543689
2133 0.79018 0.2737 2132 2545363
2134 0.54662 0.26705 2133 2812566
2135 0.96594 0.265 2133 5725015
2136 0.33438 0.25875 2135 2545425
2137 0.47895 0.25495 2136 2545445
2138 0.4848 0.25805 2135 5725020
2139 1.18284 0.27180000000000004 2132 2543753
2140 0.79769 0.26205 2139 2543762
2141 0.30488 0.25675000000000003 2140 2543768
2142 0.60087 0.25255 2141 2543777
2143 0.09287 0.24935000000000002 2142 2543781
2144 0.29355 0.2476 2143 2545324
2145 0.59514 0.24625000000000002 2143 3291728
2146 0.35219 0.25370000000000004 2141 2545346
2147 0.20995 0.2572 2140 2543792
2148 0.6017 0.25339999999999996 2147 2543811
2149 0.7414 0.2528 2147 3286033
2150 0.20319 0.2649 2139 3286067
2151 2.3102 0.2679 2131 3310031
2152 1.0591 0.3274 2116 2541358
2153 0.19332 0.31975 2152 2541375
2154 1.47772 0.31005 2153 2541484
2155 0.81458 0.297 2154 2541497
2156 0.42992 0.2902 2155 2545486
2157 0.43203 0.28559999999999997 2156 2545499
2158 0.7458 0.27945 2157 2545604
2159 0.53904 0.28049999999999997 2157 2532748
2160 0.12367 0.2771 2159 2545569
2161 0.60124 0.2893 2155 3310038
2162 1.33393 0.2792 2161 3310065
2163 0.23702 0.3002 2154 2541521
2164 1.2976 0.29185 2163 3227501
2165 0.09954 0.2843 2164 2541580
2166 0.12624 0.2831 2165 2541586
2167 0.68321 0.2789 2166 2541587
2168 0.19974 0.2744 2167 2540326
2169 0.045 0.27315 2168 2544390
2170 5.22606 0.25145 2167 7299213
2171 0.42526 0.2258 2170 3283645
2172 0.60388 0.22165 2171 2541838
2173 0.07173 0.21895 2172 2541854
2174 0.25816 0.2182 2172 3283611
2175 0.12659 0.28175 2166 2541597
2176 0.10665 0.28055 2175 3283783
2177 0.07711 0.2796 2176 3283786
2178 0.88842 0.27655 2175 2541610
2179 0.49585 0.26955 2178 2545207
2180 1.29459 0.2609 2179 2545608
2181 1.02541 0.25005 2180 2545645
2182 0.14296 0.24475000000000002 2181 2545648
2183 0.51697 0.24180000000000001 2182 2545658
2184 0.09123 0.26665 2179 2545222
2185 0.24749 0.265 2184 2545239
2186 0.7091 0.26039999999999996 2185 2545263
2187 1.18565 0.2662 2178 3283817
2188 0.52265 0.28105 2165 3365054
2189 1.95489 0.28845 2163 8294873
2190 0.05251 0.2777 2189 8294910
2191 0.23503 0.27680000000000005 2189 8294967
2192 2.47388 0.30675 2152 3310069
2193 2.54933 0.27945 2192 3313174
2194 0.21775 0.29145 2192 3181797
2195 0.31967 0.28859999999999997 2194 3310097
2196 2.73418 0.2731 2195 3310166
2197 0.41236 0.25739999999999996 2196 3310167
2198 0.61886 0.2526 2197 3310168
2199 0.15438 0.249 2198 3310174
2200 0.60852 0.24559999999999998 2199 3310184
2201 0.12199 0.24775 2199 3310191
2202 0.04419 0.2495 2198 3310224
2203 0.32032 0.24785000000000001 2202 3310226
2204 1.27457 0.24085 2203 3311980
2205 0.09622 0.2349 2204 3311987
2206 0.04899 0.23425 2205 3311988
2207 0.26787 0.2481 2202 3310227
2208 0.33884 0.2454 2207 3310250
2209 0.08087 0.24655 2207 3310261
2210 0.22087 0.2483 2202 7910969
2211 0.50865 0.2531 2197 3310282
2212 1.3992 0.2445 2211 3310319
2213 0.04206 0.2381 2212 3310320
2214 1.04708 0.23385 2212 3310378
2215 0.1156 0.2502 2211 3310292
2216 0.24767 0.25815 2196 3310399
2217 0.42648 0.255 2216 3310444
2218 0.96812 0.2486 2217 3310456
2219 0.04022 0.24405 2218 3310461
2220 0.27895 0.24265 2219 3310469
2221 0.6008 0.24125000000000002 2219 3320915
2222 0.09389 0.23820000000000002 2221 3320917
2223 0.76401 0.23535 2221 3356740
2224 0.14756 0.23149999999999998 2223 3356743
2225 0.08139 0.23175 2223 3356746
2226 0.24686 0.24315 2218 3310476
2227 0.43654 0.251 2217 3310542
2228 3.09401 0.2358 2227 3310600
2229 2.85271 0.2118 2228 3311230
2230 0.04207 0.20085 2229 3311241
2231 1.08193 0.1969 2230 3311314
2232 0.34789 0.19975 2229 3311411
2233 0.22802 0.1977 2232 3311875
2234 0.14671 0.1964 2233 3311879
2235 0.16398 0.19535 2234 3311883
2236 0.5479 0.194 2234 3359252
2237 1.10942 0.19469999999999998 2232 3311424
2238 0.52877 0.18914999999999998 2237 3311452
2239 1.51663 0.18595 2237 3311530
2240 0.08293 0.1807 2239 3311536
2241 0.05903 0.18025000000000002 2240 3311549
2242 0.17523 0.17955 2241 3311562
2243 1.16694 0.17685 2240 8319871
2244 0.76708 0.17859999999999998 2239 3311640
2245 1.26774 0.1724 2244 3311704
2246 0.68875 0.1666 2245 3311736
2247 1.14232 0.16144999999999998 2246 3311809
2248 3.28449 0.21025 2228 3310893
2249 0.13172 0.19745000000000001 2248 3310910
2250 0.94997 0.19465 2248 3310969
2251 0.31081 0.19035 2250 3311092
2252 1.22811 0.18735 2250 3311073
2253 1.18331 0.24375 2227 3362154
%root 2178615 2177781 2177647 20799546
%pre PEN1 5700373 2542290 2542572 3321432 3356842 3310226 2557839 2545648 3314822 2541375 2542028 3321449 3227971 3307372 10735438 2545608 2541521 3227971 3293254 2559442 2543753 2545648 3315452 3311736 3356782 3293254 3311549
%pre PEN2 2178393 2812757 2544519 2544989 2545648 3316526 2541375 2541963 3311640 3312422 3312867 3356449 3181797 3283783 3311549 2813253 10542330 10658671 2429886 1949552 2558259 2428783 10746467 2173236 2173617 2542290 2542636 2543777 3315485 3316526 2534271 2541375 2542193 3312267 2726325 10542330 2429621 2429669 2429694 1949585 2322957 2334600 2428632 2428727 2428740 10024231 10024400 10757153 2818734 1949395 2269841 2276411 2428087 2429105 2812628 2812636 2812757 3316704 2541375 3312422 3312422 3310399 3311241 2813137
%pre EPG 10599458 10627227 10704317 10709567 2429415 2429605 2429631 2429669 2429694 2429729 2485799 1949395 1949395 1949427 1949441 1949448 1949585 1949687 1949694 1949748 2557836 2817726 2358044 2428067 2428565 2428632 2428783 2428857 5945663 6123467 6158058 6938768 2173236 10777261 10778094 10778564 10709567 2429399 2429456 1949427 1949441 1949598 1949687 2322957 2428727 2428738 2428741 2429070 2429087 2429088 2429275 5945663 6158058 6938768 1949854 1949909 2173236 2495673 2429399 2429415 2429415 2429436 2429456 2429456 2485838 2495656 1745262 1949694 1949748 2427907 2429087 2429105 2429206 2429252 10024231 10024400 11316121 11318317 11318548 10651644 2429605 2429612 2429621 2429879 2429886 2495656 1949552 1949585 2557826 2558738 2558760 2559405 2559442 2804131 2804754 2334600 2357277 2358044 2360224 2428130 2428149 2428242 2428270 2428355 2428358 2428392 5984538 6026889 1949988 2173617 3045525 10785822 10778094 2429804 2429879 2429983 2429983 2495656 1949552 2557826 2557836 2558738 2569633 2755149 2180423 2322957 2358044 2427901 2427905 2428087 2428242 2428277 6026889 10767005 1949854 1949988 1950010 1950061 1950079 10651644 10702438 10711710 10731886 2429415 2429621 2429669 2450195 2495617 1949395 1949441 1949685 1949687 2559405 2559694 2569633 2755149 2804754 2817726 2269841 2275891 2358044 2428061 2428185 2428358 2428727 2428783 2429275 10746933 10756786 10761121 10761121 10761474 3045525 10777562 10777780 2558760 5700373 2429976 2429983 2558760 2804068
%pre PEG 1949552 2275891 2357277 2427926
%pre D7
%pre R 5700373 2542290 2542572 3321432 3356842 3310226 2557839 2545648 3314822 2541375 2542028 3321449 3227971 3307372 10735438 2545608 2541521 3227971 3293254 2543753 2545648 3315452 3311736 3356782 3293254 3311549 2178393 2812757 2544519 2544989 2545648 3316526 2541375 2541963 3311640 3312422 3312867 3356449 3181797 3283783 3311549 2813253 10542330 10658671 2429886 1949552 2558259 2428783 10746467 2173236 2173617 2542290 2542636 2543777 3315485 3316526 2534271 2541375 2542193 3312267 2726325 2812628 2812636 2812757 3316704 2541375 3312422 3312422 3310399 3311241 2813137 10599458 10627227 10704317 10709567 2429415 2429605 2429631 2429669 2429694 2429729 2485799 1949395 1949395 1949427 1949441 1949448 1949585 1949687 1949694 1949748 2557836 2817726 2358044 2428067 2428565 2428632 2428783 2428857 5945663 6123467 6158058 6938768 2173236 10777261 10778094 10778564 10709567 2429399 2429456 1949427 1949441 1949598 1949687 2322957 2428727 2428738 2428741 2429070 2429087 2429088 2429275 5945663 6158058 6938768 1949854 1949909 2173236 2495673 2429399 2429415 2429415 2429436 2429456 2429456 2485838 2495656 1745262 1949694 1949748 2427907 2429087 2429105 2429206 2429252 10024231 10024400 11316121 11318317 11318548 1949552 2275891 2429631 2559405 10704268 10704229 2804754 5945663 11315816
%post PEN1 2813058 2542613 2813198 3317185 3316386 3310378 3313257 3316619 3310038 3284000 3312956 10650683 2495729 2495700 2429607 2428311 3307316 3317145 3307348 2739647 2545172 3283645 2540326 3310065 2558120 8642473 2430124 3045525 3313236 3314792 2542280 3312778 3293250 3321445 2545486 3227501 2559424 2558728 10793639 9145145 2544328 5726421 7299213 3311736 3310038 3315735 3315860 3313260 3312161 3311452 2545645 2541967
%post PEN2 2804048 2544434 2544551 2545604 3317106 3310168 3312884 2545425 7130661 3311704 3311980 10757277 2173592 10733177 1949704 2428712 2428779 2428731 10788238 2532748 2532801 3310097 3314783 3321928 2533042 3301271 2542701 2542843 2545033 2178380 3316386 3322035 3286735 2545324 2530813 2533225 3356746 3312254 2542924 3315500 2177677 1949561 1949470 2569633 10775883 10793924 11087097 9798429 2428893 9842670 2428015 11277641 11157021 2267123 1949413 2267392 11085172 2357277 2428354 10343887 2525524 2668234 2269841 2545222 2804399 2545239 3312701 3311875 3314983 3311987 3312978 2545179 2544438 2545191 2559499
%post EPG 2428800 10519222 2429728 2429729 1949912 10730640 1949482 10706045 2495724 10619526 2428562 2854655 2429726 2429342 2429700 1949627 10708180 6121448 6126542 2428553 2429708 2429594 2822141 6126366 10701611 2429754 10624776 1746392 2427913 2524630 2495588 2495684 2429429 5966231 2823823 2822280 2429252 2524636 2823382 2822135 2807734 2428769 10675793 2612143 2429386 2428551 2428554 10519223 1949738 2272221 2429358 1746390 1734138 2429548 2429563 6041931 11311646 2429288 2440005 2429362 2817785 2428564 2428567 6041979 2429428 11321043 2428907 11316845 11320276 10748589 2486362 2081530 1981911 2429451 2429109 2468940 2429102 1949497 10782667 6003991 10782534 5991049 10792172 2680869 11215270 10758048 10779518 2804693 2559358 1949856 2558769 10746970 10756786 10599717 2559845 6001973 2307332 2681774 10776443 2299980 2430056 2558730 2429899 2738736 2317370 10746649 2428399 2428685 2428826 2428825 2428749 2353981 1949863 10689027 10733346 2428252 6326435 2353499 2732908 10731563 2331431 2737055 2428391 2330631 10539634 2557559 1949833 10788350 10779589 10626180 10745826 10745780 2323422 2744247 2428421 2428637 10795235 2321893 2736673 2558136 2558084 2322824 2744375 10711652 2264233 2732958 10710854 2428617 2829650 2865882 2804145 2428108 2593176 10732926 5815128 10738407 10709580 2428128 10740643 17625135 2666154 1949760 1949755 1949632 2428379 2428401 11215032 2428629 2529256 5824523 3089805 3205437 3101099 3100811 3084676 3166916 3084842 7174896 3492250 3493367
%post PEG 1949799 2429412 1949610 2807734 2558150 10610281 10616675 2495723 2428062 2427967 2516604 10806241 10787390 2428067 2370030 2429144 2428528 2428336 10757684 2427928 10574269 10709512 10745419 10733870 10806232 6320014 10737622 2558315 2803888 2558298 2495592 10615614 2558827 4580290 4580748 6317473 2804855 2823853 2427981 2804079 10755981 2428660 4708507 6320531 2428960 6321204 2429543 6323582 2429538 2429593 2427995 5630875 2557615
%post D7 3167206 7175325 7175598 7175695 7175646 3205254 7175057 7175717 7178311 7178066 3492957 7175310 6869346 6871760 3058499 3083025 7178523 7178451 7178401 6868372 7175938 3059675 3083127 2907574 2486660 6868791 2907456 7178507 3205101 6966381 2908434 7175808 3085686 7178067 7178219 7040928 3244186 3244189 3085137 3089861 3089892 21369105 3084996 3239212 3239155 7040992 3236179 2906960 3089876 3188223 3205162 2907381 2178926 3239550 7178750 7178816 3241911 3167297 3159112 7041124 7174954 2487883 7177892
%post R 2813058 2542613 2813198 3317185 3316386 3310378 3313257 3316619 3310038 3284000 3312956 10650683 2495729 2495700 2429607 2428311 3307316 3317145 3307348 2739647 2545172 3283645 2540326 3310065 2558120 8642473 2430124 3045525 3313236 3314792 2542280 3312778 3293250 3321445 2545486 3227501 2544328 5726421 7299213 3311736 3310038 3315735 3315860 3313260 3312161 3311452 2545645 2541967 2804048 2544434 2544551 2545604 3317106 3310168 3312884 2545425 7130661 3311704 3311980 10757277 2173592 10733177 1949704 2428712 2428779 2428731 10788238 2532748 2532801 3310097 3314783 3321928 2533042 3301271 2542701 2542843 2545033 2178380 3316386 3322035 3286735 2545324 2530813 2533225 3356746 3312254 2542924 3315500 2545222 2804399 2545239 3312701 3311875 3314983 3311987 3312978 2545179 2544438 2545191 2428800 10519222 2429728 2429729 1949912 10730640 1949482 10706045 2495724 10619526 2428562 2854655 2429726 2429342 2429700 1949627 10708180 6121448 6126542 2428553 2429708 2429594 2822141 6126366 10701611 2429754 10624776 1746392 2427913 2524630 2495588 2495684 2429429 5966231 2823823 2822280 2429252 2524636 2823382 2822135 2807734 2428769 10675793 2612143 2429386 2428551 2428554 10519223 1949738 2272221 2429358 1746390 1734138 2429548 2429563 6041931 11311646 2429288 2440005 2429362 2817785 2428564 2428567 6041979 2429428 11321043 2428907 11316845 11320276 10748589 2486362 2081530 1981911 2429451 2429109 2468940 2429102 3089805 3205437 3101099 3100811 3084676 3166916 3084842 7174896 3492250 3493367 1949799 2429412 1949610 2807734 2558150 10610281 10616675 2495723 2428062 2427967 2516604 10806241 10787390 2428067 2370030 2429144 2428528 2428336 10757684 2427928 10574269 10709512 10745419 10733870 10806232 3167206 7175325 7175598 7175695 7175646 3205254 7175057 7175717 7178311 7178066 3492957 7175310 6869346 6871760 3058499 3083025 7178523 7178451 7178401 6868372 7175938 3059675 3083127 2907574 2486660 6868791 2907456 7178507 3205101 6966381 2908434 7175808 3085686 7178067 7178219 7040928 3244186 3244189 3085137 3089861 3089892 21369105 3084996 3239212 3239155 7040992 3236179 2906960 3089876 3188223 3205162 2907381 2178926 3239550 7178750 7178816 3241911 3167297 3159112 7041124 7174954 2487883 7177892 4035530 11316498 22963812 2429640 2831619 2831637 2559831 10730236 10599137 11316377 10796101 11315680 10729853
%pre PEN1-5R 5700373 2542290 2542572 3321432 3356842 3310226
%pre PEN1-5L
%pre PEN1-6Ra 2557839 2545648 3314822 2541375 2542028 3321449 3227971 3307372
%pre PEN1-6Rb 10735438 2545608 2541521 3227971 3293254
%pre PEN1-6La 2559442
%pre PEN1-6Lb
%pre PEN1-7R 2543753 2545648 3315452 3311736 3356782 3293254 3311549
%pre PEN1-7L
%pre PEN2-5R 2178393 2812757 2544519 2544989 2545648 3316526 2541375 2541963 3311640 3312422 3312867 3356449 3181797 3283783 3311549 2813253
%pre PEN2-5L
%pre PEN2-6Ra
%pre PEN2-6Rb 10542330 10658671 2429886 1949552 2558259 2428783 10746467 2173236 2173617 2542290 2542636 2543777 3315485 3316526 2534271 2541375 2542193 3312267 2726325
%pre PEN2-6La 10542330 2429621 2429669 2429694 1949585 2322957 2334600 2428632 2428727 2428740 10024231 10024400 10757153 2818734
%pre PEN2-6Lb 1949395 2269841 2276411 2428087 2429105
%pre PEN2-7R 2812628 2812636 2812757 3316704 2541375 3312422 3312422 3310399 3311241 2813137
%pre PEN2-7L
%pre EPG-5Ra 10599458 10627227 10704317 10709567 2429415 2429605 2429631 2429669 2429694 2429729 2485799 1949395 1949395 1949427 1949441 1949448 1949585 1949687 1949694 1949748 2557836 2817726 2358044 2428067 2428565 2428632 2428783 2428857 5945663 6123467 6158058 6938768 2173236 10777261 10778094 10778564
%pre EPG-5Rb 10709567 2429399 2429456 1949427 1949441 1949598 1949687 2322957 2428727 2428738 2428741 2429070 2429087 2429088 2429275 5945663 6158058 6938768 1949854 1949909 2173236 2495673
%pre EPG-5Rc 2429399 2429415 2429415 2429436 2429456 2429456 2485838 2495656 1745262 1949694 1949748 2427907 2429087 2429105 2429206 2429252 10024231 10024400 11316121 11318317 11318548
%pre EPG-5La 10651644 2429605 2429612 2429621 2429879 2429886 2495656 1949552 1949585 2557826 2558738 2558760 2559405 2559442 2804131 2804754 2334600 2357277 2358044 2360224 2428130 2428149 2428242 2428270 2428355 2428358 2428392 5984538 6026889 1949988 2173617 3045525 10785822 10778094
%pre EPG-5Lb 2429804 2429879 2429983 2429983 2495656 1949552 2557826 2557836 2558738 2569633 2755149 2180423 2322957 2358044 2427901 2427905 2428087 2428242 2428277 6026889 10767005 1949854 1949988 1950010 1950061 1950079
%pre EPG-5Lc 10651644 10702438 10711710 10731886 2429415 2429621 2429669 2450195 2495617 1949395 1949441 1949685 1949687 2559405 2559694 2569633 2755149 2804754 2817726 2269841 2275891 2358044 2428061 2428185 2428358 2428727 2428783 2429275 10746933 10756786 10761121 10761121 10761474 3045525 10777562 10777780
%pre EPG-6Ra
%pre EPG-6Rb
%pre EPG-6La 2558760 5700373
%pre EPG-6Lb 2429976 2429983 2558760 2804068
%pre PEG-5R 1949552 2275891
%pre PEG-5L 2357277 2427926
%pre PEG-6R
%pre PEG-6L
%pre D7-5R4La
%pre D7-5R4Lb
%pre D7-6R3La
%pre D7-6R3Lb
%pre D7-7R2L
%pre D7-2R7L
%pre D7-1R9R8L
%pre GE-r1 2485729 2485737 2485799 2485929 2495617 2495656 2495656 1745262 2817726 2818566 2428507 2428857 2428861 2428875 2428949 2429070 2429105 5984538 2495732 2818637 2818734 11315449 11316121 11316121
%pre NO-LAL-G 2544519 2545608 3315452 3321978 3333692 3283783 3310544 2813253
%pre Ra 2429631
%pre Rb 2559405
%pre Rc 10704268
%pre Rd
%pre Re
%pre Rf
%pre Rg 10704229 2804754 5945663 11315816
%post PEN1-5R 2813058 2542613 2813198 3317185 3316386 3310378 3313257 3316619 3310038 3284000 3312956
%post PEN1-5L
%post PEN1-6Ra 10650683 2495729 2495700 2429607 2428311 3307316 3317145 3307348 2739647 2545172 3283645 2540326 3310065
%post PEN1-6Rb 2558120 8642473 2430124 3045525 3313236 3314792 2542280 3312778 3293250 3321445 2545486 3227501
%post PEN1-6La 2559424 2558728 10793639 9145145
%post PEN1-6Lb
%post PEN1-7R 2544328 5726421 7299213 3311736 3310038 3315735 3315860 3313260 3312161 3311452 2545645 2541967
%post PEN1-7L
%post PEN2-5R 2804048 2544434 2544551 2545604 3317106 3310168 3312884 2545425 7130661 3311704 3311980
%post PEN2-5L
%post PEN2-6Ra
%post PEN2-6Rb 10757277 2173592 10733177 1949704 2428712 2428779 2428731 10788238 2532748 2532801 3310097 3314783 3321928 2533042 3301271 2542701 2542843 2545033 2178380 3316386 3322035 3286735 2545324 2530813 2533225 3356746 3312254 2542924 3315500
%post PEN2-6La 2177677 1949561 1949470 2569633 10775883 10793924 11087097 9798429 2428893 9842670
%post PEN2-6Lb 2428015 11277641 11157021 2267123 1949413 2267392 11085172 2357277 2428354 10343887 2525524 2668234 2269841
%post PEN2-7R 2545222 2804399 2545239 3312701 3311875 3314983 3311987 3312978 2545179 2544438 2545191
%post PEN2-7L 2559499
%post EPG-5Ra 2428800 10519222 2429728 2429729 1949912 10730640 1949482 10706045 2495724 10619526 2428562 2854655 2429726 2429342 2429700 1949627 10708180 6121448 6126542 2428553 2429708 2429594 2822141 6126366 10701611 2429754 10624776
%post EPG-5Rb 1746392 2427913 2524630 2495588 2495684 2429429 5966231 2823823 2822280 2429252 2524636 2823382 2822135 2807734 2428769 10675793 2612143 2429386 2428551 2428554 10519223 1949738 2272221 2429358 1746390 1734138 2429548 2429563 6041931 11311646 2429288 2440005 2429362 2817785 2428564 2428567 6041979
%post EPG-5Rc 2429428 11321043 2428907 11316845 11320276 10748589 2486362 2081530 1981911 2429451 2429109 2468940 2429102
%post EPG-5La 1949497 10782667 6003991 10782534 5991049 10792172 2680869 11215270 10758048 10779518 2804693 2559358 1949856 2558769 10746970 10756786 10599717 2559845 6001973 2307332 2681774 10776443 2299980 2430056 2558730 2429899
%post EPG-5Lb 2738736 2317370 10746649 2428399 2428685 2428826 2428825 2428749 2353981 1949863 10689027 10733346 2428252 6326435 2353499 2732908 10731563 2331431 2737055 2428391 2330631 10539634 2557559 1949833 10788350 10779589 10626180 10745826 10745780 2323422 2744247 2428421 2428637 10795235 2321893 2736673 2558136 2558084 2322824 2744375 10711652 2264233 2732958 10710854 2428617
%post EPG-5Lc 2829650 2865882 2804145 2428108 2593176 10732926 5815128 10738407 10709580 2428128 10740643 17625135 2666154 1949760 1949755 1949632 2428379 2428401 11215032 2428629 2529256 5824523
%post EPG-6Ra 3089805 3205437 3101099 3100811 3084676 3166916 3084842
%post EPG-6Rb 7174896 3492250 3493367
%post EPG-6La
%post EPG-6Lb
%post PEG-5R 1949799 2429412 1949610 2807734 2558150 10610281 10616675 2495723 2428062 2427967 2516604 10806241 10787390 2428067 2370030 2429144 2428528 2428336 10757684 2427928 10574269 10709512 10745419 10733870 10806232
%post PEG-5L 6320014 10737622 2558315 2803888 2558298 2495592 10615614 2558827 4580290 4580748 6317473 2804855 2823853 2427981 2804079 10755981 2428660 4708507 6320531 2428960 6321204 2429543 6323582 2429538 2429593 2427995
%post PEG-6R
%post PEG-6L 5630875 2557615
%post D7-5R4La
%post D7-5R4Lb 3167206
%post D7-6R3La 7175325 7175598 7175695 7175646 3205254 7175057 7175717 7178311 7178066 3492957 7175310 6869346 6871760 3058499 3083025 7178523 7178451 7178401 6868372 7175938 3059675 3083127 2907574 2486660 6868791 2907456 7178507 3205101 6966381 2908434 7175808 3085686 7178067 7178219
%post D7-6R3Lb 7040928 3244186 3244189 3085137 3089861 3089892 21369105 3084996 3239212 3239155 7040992 3236179 2906960 3089876 3188223 3205162 2907381 2178926 3239550 7178750 7178816 3241911 3167297 3159112 7041124 7174954 2487883 7177892
%post D7-7R2L
%post D7-2R7L
%post D7-1R9R8L
%post GE-r1 10749091 11315703 2524639 11320290
%post NO-LAL-G 3332614 3356437 2541786 2541676 3332598 3365026 3333371 3281511 3281776 2739703 3286558 2739701 3356144 3311809 2541625 2545445 3362154 3356733 2813270 3311073 3315826 5725729 3281874 3182113 3281516 3312926 3281723 3282166 3283692 2545300 3356813 3356792 3310320 3311292 3312019 3312323 3312734 3314792 3314983 3315018 3316583 3316619 3363423 3317001 3317112 3321179 3311092 3321978 3310286 3314940 3314800 3283987 3333965 3314755 3314820 2813032 3353424 2813293 3284130 3315807 3359252 3321478 2545650 3317038 3362884 3316728 3227501 3364595
%post Ra 4035530 11316498 22963812 2429640
%post Rb 2831619
%post Rc 2831637 2559831 10730236
%post Rd
%post Re
%post Rf 10599137 11316377
%post Rg 10796101 11315680 10729853