%neuron PEN2-6Rb
#User ktj21
#Jayaraman lab
0 0.001 0.442 -1 2162458
1 15.72999 0.442 0 2162337
2 4.31476 0.442 1 2162298
3 10.86913 0.442 2 2162135
4 17.34818 0.442 3 2161670
5 4.92631 0.4042 4 1949353
6 4.47657 0.33804999999999996 5 1949304
7 2.10695 0.29805 6 1949290
8 0.06332 0.28605 7 1949289
9 1.10168 0.28 8 1949273
10 0.04402 0.2741 9 1949271
11 2.17553 0.26335 10 1949228
12 0.38123 0.25105 11 1949222
13 1.04589 0.24464999999999998 12 1949132
14 0.14705 0.23935 13 1949123
15 0.04405 0.2385 14 1949122
16 0.23548 0.2373 15 1949116
17 1.9563 0.22825 16 1949113
18 1.35096 0.215 17 1949111
19 0.70344 0.2072 18 1735726
20 0.10824 0.2042 19 1949097
21 0.73801 0.20115 20 1949096
22 2.89591 0.1889 21 1949038
23 0.08246 0.179 22 1949036
24 0.09016 0.17845 23 1949033
25 1.34626 0.1741 24 1949014
26 0.34282 0.169 25 1949010
27 0.04892 0.16785 26 1949008
28 1.36603 0.1639 27 1948990
29 0.54852 0.1586 28 1948982
30 1.3939 0.15344999999999998 29 1948975
31 0.77661 0.14784999999999998 30 1948966
32 0.29128 0.1452 31 1948950
33 1.72158 0.1405 32 1948946
34 0.33282 0.13575 33 1734133
35 0.37535 0.13415 34 5811968
36 0.51096 0.13219999999999998 35 5811971
37 1.04214 0.12890000000000001 36 5812004
38 0.35285 0.12595 37 5812008
39 0.35431 0.12595 37 5812016
40 0.15995 0.12490000000000001 39 5812017
41 0.42576 0.12375 40 5812022
42 0.39389 0.12440000000000001 39 5812036
43 1.31809 0.1283 36 5812000
44 0.65227 0.13190000000000002 35 5811976
45 0.49794 0.12945 44 5811978
46 0.30191 0.12985000000000002 44 5811982
47 0.79063 0.1347 33 1948954
48 0.24371 0.13595000000000002 33 1948955
49 0.11014 0.13515 48 1948957
50 0.31276 0.13419999999999999 49 1948964
51 0.36519 0.14365 32 11803042
52 0.12236 0.14250000000000002 51 11803050
53 0.4808 0.14105 52 6323321
54 0.0845 0.1397 53 11803063
55 0.46453 0.1411 52 11803107
56 0.99042 0.13775 55 11822785
57 0.59724 0.1386 55 12334250
58 0.29909 0.13655 57 11803215
59 1.49594 0.1326 58 11822654
60 0.11213 0.1291 59 2586336
61 0.25876 0.12835 60 2580310
62 0.15917 0.129 59 11822660
63 0.3522 0.1351 58 11803240
64 0.16954 0.13395 63 10127008
65 0.35923 0.1328 64 1746802
66 0.08201 0.1318 65 11803284
67 0.27198 0.13105 66 11803337
68 0.615 0.1292 67 11803339
69 0.43218 0.127 68 11804756
70 1.87365 0.1224 69 2546320
71 0.27791 0.11815 70 11805036
72 0.42311 0.1168 71 5776460
73 0.0683 0.1159 72 11805062
74 0.0402 0.1186 70 15180175
75 0.04011 0.11845 74 6164665
76 0.17306 0.11805 75 11805245
77 0.93049 0.11599999999999999 76 5942757
78 0.04105 0.1142 77 11805275
79 0.21086 0.1173 76 11805325
80 0.18262 0.1301 67 2807233
81 0.08339 0.1295 80 2528728
82 0.71497 0.1278 81 11803443
83 1.38644 0.1276 67 11805589
84 0.92654 0.12285 83 11805736
85 1.61329 0.11795 84 11806301
86 0.2269 0.11449999999999999 85 11821713
87 0.61988 0.1138 85 5947315
88 0.23306 0.12054999999999999 84 11806173
89 0.19039 0.12065000000000001 84 11806245
90 0.67522 0.12335 83 11805612
91 0.60272 0.14445 31 12049697
92 0.62845 0.14825 30 5808957
93 0.39677 0.15605 29 5811672
94 0.53575 0.15360000000000001 93 5811670
95 0.66343 0.1583 28 1948995
96 0.63982 0.16620000000000001 26 11677182
97 0.49425 0.16299999999999998 96 11854050
98 0.9034 0.1619 96 11854073
99 1.02627 0.16705 25 1949020
100 0.04928 0.16394999999999998 99 1949021
101 0.82809 0.17565 24 11827692
102 0.07305 0.1729 101 5942274
103 0.04892 0.17254999999999998 102 11827701
104 0.42698 0.17185 101 11827714
105 1.75295 0.1656 104 11828075
106 0.39998 0.1595 105 11831624
107 0.68123 0.15660000000000002 106 11831633
108 0.66198 0.15305 107 2516272
109 0.05967 0.15115 108 11831733
110 0.91138 0.15239999999999998 107 11861699
111 0.78862 0.14805000000000001 110 11861777
112 0.26205 0.14934999999999998 110 11861716
113 0.06952 0.15460000000000002 107 11861576
114 1.09921 0.15155000000000002 113 2501870
115 0.05108 0.1486 114 11861833
116 1.01223 0.1557 106 11832242
117 0.62222 0.15139999999999998 116 11832245
118 0.41934 0.14875 117 2516311
119 0.33935 0.14684999999999998 118 11833686
120 1.06421 0.1472 117 6121490
121 1.05671 0.1503 116 2867818
122 1.3357 0.1444 121 11832461
123 0.32829 0.16965 104 2854215
124 0.04207 0.16854999999999998 123 11854219
125 0.61288 0.1774 22 1949040
126 0.74683 0.17325000000000002 125 1949051
127 0.07011 0.1708 126 1949053
128 1.00286 0.1725 125 11824956
129 0.09026 0.16920000000000002 128 5942283
130 0.04919 0.1688 129 11825879
131 0.4043 0.1683 128 11824969
132 0.04056 0.16699999999999998 131 11825904
133 1.76131 0.1622 131 6776760
134 0.06774 0.15710000000000002 133 11826599
135 0.2452 0.19765 21 11679846
136 0.95074 0.19355 135 11861187
137 0.56199 0.19485 135 11679900
138 0.04446 0.20365 20 1949098
139 0.16849 0.20915 18 11682465
140 0.21694 0.2077 139 1949140
141 0.37898 0.20550000000000002 140 1949146
142 0.13483 0.2036 141 1949149
143 0.26689 0.21915 17 1949153
144 0.87777 0.2147 143 1949163
145 0.15942 0.21744999999999998 143 1949158
146 0.22633 0.21595 145 1949160
147 2.10966 0.22765000000000002 16 2738357
148 0.62857 0.21655000000000002 147 2738414
149 0.23483 0.21805 147 2738443
150 0.15105 0.23565 16 1949165
151 0.711 0.23199999999999998 150 1949167
152 0.05668 0.2288 151 1949168
153 0.5156 0.22649999999999998 152 1949172
154 0.1991 0.22775 152 1949176
155 1.16218 0.2243 151 2867004
156 0.54174 0.2175 155 2807609
157 0.31071 0.2142 156 2867042
158 0.13601 0.2125 157 2867049
159 0.47778 0.2112 157 2867047
160 0.73327 0.2067 159 2455582
161 0.18316 0.20334999999999998 160 5812041
162 0.11402 0.21915 155 2635914
163 0.70205 0.23204999999999998 150 1949188
164 1.39032 0.2235 163 2469015
165 0.84277 0.21465 164 2738306
166 1.33264 0.23270000000000002 15 11851157
167 0.13007 0.22655 166 11851148
168 0.8221 0.24905 11 1949232
169 0.58054 0.24275 168 2514082
170 0.75026 0.27054999999999996 9 12050504
171 0.41193 0.2842 7 1949291
172 0.11049 0.28145 171 5811953
173 0.25099 0.27959999999999996 172 5811955
174 0.63757 0.27764999999999995 172 5811960
175 0.30661 0.30795 6 2170703
176 1.60612 0.2973 175 2170705
177 0.59975 0.28525 176 2170706
178 2.9864 0.26745 177 2172318
179 0.87862 0.24880000000000002 178 2173557
180 2.92765 0.24000000000000002 178 2172340
181 2.40251 0.2178 180 2172364
182 0.33725 0.20715 181 2172367
183 1.73344 0.1998 182 2173505
184 0.04016 0.20579999999999998 182 2172384
185 0.20381 0.20495 184 2455612
186 0.23298 0.20335 185 2172392
187 0.35621 0.2012 186 2172440
188 0.13557 0.19945000000000002 187 2172444
189 0.9124 0.1958 188 2173469
190 0.85794 0.196 188 2172459
191 0.16298 0.19245 190 2172507
192 0.04105 0.19174999999999998 191 2172536
193 0.27321 0.19069999999999998 192 2173408
194 1.15955 0.1878 192 2172584
195 0.90389 0.18109999999999998 194 2173415
196 0.74072 0.17595 195 2173452
197 0.2292 0.1775 195 2173426
198 0.42286 0.18264999999999998 194 2172595
199 0.34606 0.1802 198 2172619
200 0.72011 0.17685 199 2172670
201 1.01861 0.1716 200 2173379
202 0.44279 0.1673 201 2173390
203 1.39544 0.17049999999999998 200 2172761
204 0.93136 0.1638 203 2173288
205 0.08906 0.16095 204 2173302
206 0.54825 0.16485 203 2172787
207 0.99108 0.16055 206 2172852
208 0.09409 0.15755 207 2172871
209 0.11509 0.157 208 2172877
210 0.3994 0.15565 209 11692718
211 1.4317 0.15094999999999997 210 2173104
212 0.32128 0.1465 211 2173111
213 0.69865 0.14400000000000002 212 2173142
214 1.05588 0.13985 213 2173162
215 0.44413 0.14125 213 2173157
216 0.84492 0.14525 211 11692372
217 0.3741 0.14229999999999998 216 2173008
218 0.49993 0.1402 217 2173177
219 0.53909 0.1419 216 2173029
220 0.61055 0.1392 219 2173039
221 0.67638 0.13624999999999998 220 2426125
222 0.09103 0.1345 221 2426127
223 0.08839 0.1376 220 2173058
224 0.17413 0.1402 219 2173072
225 0.78092 0.15465 209 2172883
226 0.91532 0.1503 225 2173216
227 0.34265 0.14715 226 2173221
228 0.04615 0.14784999999999998 226 2173242
229 0.04153 0.1476 228 2173243
230 0.27553 0.1473 226 2173256
231 0.47541 0.1514 225 2173186
232 0.50935 0.1489 231 2173188
233 0.35144 0.14675 232 2173190
234 0.1505 0.14550000000000002 233 2173191
235 0.08099 0.1457 233 5811850
236 0.17458 0.14715 232 1984326
237 0.30256 0.14600000000000002 236 2173198
238 1.30674 0.14695 231 11854849
239 0.11362 0.14345 238 11854862
240 1.14623 0.14100000000000001 238 2809534
241 0.16868 0.13790000000000002 240 11854971
242 0.5734 0.1558 208 2720397
243 0.26492 0.15360000000000001 242 2720399
244 0.17361 0.15245 243 2740123
245 0.53312 0.15289999999999998 242 11692763
246 0.81253 0.17875 198 2426121
247 1.83762 0.1859 191 2173358
248 0.86272 0.20525 181 2426116
249 0.07887 0.2269 180 2426101
250 0.59023 0.2242 249 2426104
251 0.55889 0.22435 249 2426107
252 0.5777 0.2791 177 2644774
253 0.51122 0.27355 252 2644834
254 0.61555 0.273 252 14005281
255 0.05619 0.26964999999999995 254 14005299
256 0.38797 0.28635 176 2170894
257 1.56362 0.27635 256 2170927
258 0.89494 0.26405 257 2170941
259 0.26071 0.2671 257 2170964
260 2.43069 0.2545 259 2171961
261 0.55483 0.24075000000000002 260 5811843
262 0.0865 0.23795 261 5811845
263 0.04482 0.2381 261 12125255
264 0.09235 0.2375 263 12125225
265 0.24647 0.24209999999999998 260 2171993
266 0.96848 0.23685 265 2172300
267 1.408 0.235 265 2172031
268 0.15345 0.2284 267 2172044
269 0.04128 0.2276 268 11691826
270 1.18376 0.22265000000000001 269 2172098
271 1.29053 0.21300000000000002 270 2172288
272 0.24111 0.2072 271 2172293
273 1.52545 0.2121 270 2172124
274 0.68411 0.20385 273 2172125
275 0.09276 0.20105 274 2172136
276 0.31387 0.1996 275 2172129
277 0.59181 0.19929999999999998 274 11164933
278 0.18495 0.19655 277 2176895
279 0.76843 0.19324999999999998 278 2176896
280 0.45438 0.1891 279 2176899
281 0.08747 0.1873 280 2176901
282 0.90601 0.18764999999999998 279 2176908
283 0.1251 0.18430000000000002 282 2176911
284 0.08206 0.18359999999999999 283 2176913
285 1.06022 0.18 284 2419688
286 0.25345 0.1825 284 2177129
287 0.12251 0.18130000000000002 286 2177133
288 0.12879 0.1805 287 2177136
289 0.25745 0.17930000000000001 288 2177144
290 0.24724 0.17775 289 2177147
291 1.44589 0.17935 283 11835997
292 0.04144 0.17470000000000002 291 1735762
293 1.00403 0.1716 292 6126541
294 0.34192 0.1676 293 11836238
295 0.19567 0.17420000000000002 291 11836034
296 0.7061 0.18245 282 2177156
297 0.29832 0.17925 296 2177160
298 0.04405 0.17814999999999998 297 2177161
299 0.18531 0.19524999999999998 278 2176920
300 0.05558 0.19440000000000002 299 2176921
301 0.30128 0.1932 300 2176925
302 2.12815 0.18525 301 2177066
303 0.7838 0.1759 302 2177073
304 0.63392 0.17165 303 2177115
305 0.41551 0.16855 304 2177121
306 0.07162 0.16955 304 2177119
307 0.20241 0.1729 303 2177079
308 1.2887 0.16855 307 2177101
309 0.91714 0.16225 308 2177114
310 0.85364 0.1698 307 2177091
311 0.09069 0.17804999999999999 302 2177070
312 1.70609 0.1866 301 2176995
313 0.50102 0.1794 312 2176997
314 1.51977 0.17325000000000002 313 2177182
315 1.04726 0.17465000000000003 313 2177012
316 1.085 0.16835 315 2177021
317 1.20334 0.16185 316 2177190
318 0.42022 0.15735 317 2177197
319 1.13055 0.1533 318 2177217
320 1.6084 0.16075 316 2177027
321 1.01811 0.15365 320 2177394
322 1.25973 0.15305 320 11687974
323 0.25551 0.14915 322 2177370
324 0.2032 0.148 323 2177395
325 1.20403 0.14455 324 2177436
326 0.09644 0.14725 324 2177399
327 1.65546 0.14305 326 2177423
328 0.33799 0.1383 327 2177433
329 0.5822 0.14834999999999998 322 12051698
330 0.04566 0.14675 329 2177038
331 0.3641 0.1457 330 11770714
332 0.16092 0.14445000000000002 331 2177452
333 0.37089 0.1432 332 2177459
334 0.78579 0.14045000000000002 333 2177469
335 0.39292 0.1377 334 2177471
336 0.08721 0.1366 335 2177472
337 0.0409 0.13629999999999998 336 2177473
338 0.09357 0.1366 335 2177475
339 0.23287 0.13805 334 2177478
340 0.44354 0.14125 333 2177465
341 1.98889 0.1419 330 2177235
342 1.20474 0.1345 341 2177336
343 1.13824 0.13465 341 2177256
344 0.26845 0.13155 343 2177258
345 0.44413 0.13115 343 2177267
346 1.66104 0.1268 345 2177292
347 1.29851 0.12085 346 12051149
348 0.04438 0.1182 347 2177317
349 0.13487 0.11785 348 2177314
350 0.28429 0.1171 349 2177310
351 0.52279 0.1156 350 2177308
352 1.01633 0.11624999999999999 348 2177319
353 0.06139 0.1143 352 2177320
354 0.09289 0.1142 352 2177322
355 0.86496 0.15405 320 2177042
356 0.07222 0.1516 355 2177043
357 0.16655 0.15100000000000002 356 2177053
358 0.5094 0.1493 357 2177054
359 0.57928 0.14655 358 2177055
360 0.43227 0.14405 359 2177220
361 0.25912 0.14450000000000002 359 2177058
362 0.33215 0.1431 361 2177364
363 0.76498 0.14205 361 2177352
364 0.32115 0.1395 363 2177361
365 0.37451 0.14705000000000001 358 2177061
366 0.42617 0.14950000000000002 357 2177065
367 0.77391 0.16925 315 11689764
368 0.05065 0.192 301 2176943
369 0.10776 0.19145 368 2176940
370 0.29133 0.19014999999999999 369 2176951
371 1.12957 0.1881 368 11837124
372 1.35556 0.1801 371 11837361
373 1.36309 0.17175 372 9916071
374 0.36529 0.16665 373 11843465
375 0.31464 0.1647 374 2636046
376 0.39856 0.1627 375 1772400
377 0.10634 0.1613 376 11843496
378 0.12615 0.17545 372 2566130
379 0.3954 0.1739 378 11839563
380 0.59639 0.1709 379 11839768
381 2.7298 0.16494999999999999 379 11840716
382 0.20211 0.15665 381 11841057
383 0.12828 0.15685 381 11841113
384 0.85433 0.17325000000000002 372 11837525
385 0.75638 0.16849999999999998 384 11845169
386 0.3816 0.1652 385 11845174
387 0.13075 0.1659 385 11845216
388 0.10736 0.1652 387 11845220
389 0.96674 0.1679 384 11845148
390 0.12028 0.184 371 18105578
391 0.23978 0.18280000000000002 390 2592853
392 0.04291 0.1819 391 11837176
393 2.31165 0.1847 301 2176961
394 0.22911 0.1765 393 2176962
395 0.11281 0.17545 394 2176964
396 0.11206 0.17545 394 2176966
397 1.00929 0.17415 393 2176986
398 0.41732 0.2048 273 2172148
399 0.32788 0.2021 398 2172150
400 0.61979 0.19874999999999998 399 2172180
401 0.21692 0.19585 400 2172226
402 0.75697 0.1925 401 2863434
403 0.08276 0.2006 399 2172159
404 0.8232 0.26185 259 4709062
405 1.30668 0.2519 404 2170987
406 1.39007 0.23985 405 2171291
407 2.01556 0.22560000000000002 406 2171600
408 1.37704 0.21215 407 2196182
409 0.11375 0.21695 407 2171623
410 0.24899 0.2155 409 2171645
411 1.2416 0.20984999999999998 410 2171647
412 0.33544 0.20400000000000001 411 2644974
413 0.54661 0.20085 412 2644982
414 0.34558 0.1977 413 2644987
415 0.17198 0.19590000000000002 414 2644995
416 0.57872 0.1933 415 2645012
417 0.89355 0.19965 412 2727266
418 1.3169 0.192 417 2737118
419 0.43831 0.1861 418 2737149
420 1.00644 0.1815 419 2737233
421 0.09934 0.178 420 2737270
422 0.92728 0.17485 421 2737438
423 0.04032 0.1719 422 2737440
424 0.39449 0.17065000000000002 423 2324038
425 0.31203 0.16855 424 2510386
426 0.51019 0.16615000000000002 425 2737600
427 0.21946 0.16410000000000002 426 2737655
428 0.44606 0.16225 427 2737743
429 0.25937 0.1603 428 2737769
430 0.73861 0.19395 417 5811883
431 0.21104 0.20445 411 6317067
432 0.04207 0.20355 431 2171665
433 0.13513 0.2029 432 2171667
434 1.59927 0.19685 433 2171690
435 0.29831 0.1903 434 2196222
436 0.33772 0.2012 433 2171700
437 1.41502 0.1951 436 2171737
438 0.34323 0.18905 437 2171755
439 0.58991 0.186 438 2171771
440 0.29014 0.18315 439 2171798
441 0.81255 0.1815 439 2171895
442 0.25047 0.17815 441 2171903
443 1.17909 0.18409999999999999 438 2738132
444 0.23348 0.18945 437 11859988
445 0.99804 0.21075 410 2173683
446 0.14733 0.20645 445 2173688
447 0.59374 0.20375 446 2173689
448 0.58797 0.19955 447 2173691
449 0.16056 0.19690000000000002 448 2196073
450 0.90262 0.19845000000000002 447 2173696
451 0.70627 0.19290000000000002 450 2196135
452 0.69488 0.19290000000000002 450 2196095
453 0.37602 0.20455 446 2173702
454 1.62828 0.1975 453 2426200
455 0.33681 0.19065 454 2426202
456 0.15699 0.19125 454 2426204
457 0.32269 0.18964999999999999 456 2426206
458 0.35513 0.18955 456 2426208
459 0.46421 0.18685000000000002 458 2426209
460 0.10607 0.18495 459 2426211
461 0.43136 0.18325 460 2426213
462 0.14131 0.18145 461 2426214
463 0.14636 0.1805 462 2426216
464 0.1132 0.1815 461 2426218
465 0.28015 0.18369999999999997 460 2426223
466 0.55295 0.18355 459 2426229
467 0.11842 0.188 458 2426225
468 0.21345 0.2329 406 2171313
469 0.81084 0.22860000000000003 468 2195970
470 0.44472 0.22345 469 2195995
471 0.78019 0.21860000000000002 470 2196010
472 0.1799 0.21484999999999999 471 2196014
473 0.04557 0.21534999999999999 471 2196030
474 0.60292 0.22945 468 2171347
475 1.1374 0.22235 474 2196063
476 1.77399 0.21989999999999998 474 2171362
477 0.56587 0.21075 476 2171458
478 0.04535 0.21275 476 5809991
479 0.14241 0.21205000000000002 478 2171472
480 0.71927 0.20879999999999999 479 2171500
481 0.27641 0.2051 480 2171511
482 0.5695 0.20405 480 2171553
483 0.7656 0.20865 479 2171476
484 0.38663 0.20440000000000003 483 2171483
485 0.85434 0.2421 405 2171013
486 1.23083 0.2331 485 2171016
487 1.08213 0.22355 486 2426145
488 0.28069 0.21810000000000002 487 2426153
489 0.16142 0.21639999999999998 488 2426154
490 0.04016 0.21565 489 2426176
491 0.77896 0.2125 490 2426180
492 0.4362 0.2138 490 2426184
493 1.98542 0.2084 489 2426175
494 0.51989 0.2258 486 2173570
495 0.42442 0.222 494 2173601
496 0.26816 0.21925 495 2173609
497 0.67343 0.221 494 10747107
498 0.88571 0.21489999999999998 497 2173639
499 0.37313 0.2101 498 2173653
500 1.70288 0.20255 499 2195619
501 0.46025 0.19485 500 2195661
502 0.63491 0.19115 501 2195736
503 1.81614 0.18315 502 2196415
504 0.81371 0.17485 503 2196437
505 0.56956 0.17070000000000002 504 2196481
506 0.53186 0.1708 504 2196458
507 0.24062 0.1766 503 2196427
508 0.21184 0.1883 502 2195744
509 0.50364 0.19469999999999998 500 2195692
510 0.43216 0.19155 509 2195700
511 2.89733 0.1809 510 11824719
512 0.04234 0.18995 510 2195707
513 0.5495 0.18795 512 2195718
514 0.45356 0.1883 512 2195722
515 0.43666 0.2071 499 2195654
516 1.41862 0.22225 486 2171143
517 0.60601 0.21425 516 2171149
518 0.19281 0.2112 517 2195763
519 0.16407 0.20984999999999998 518 2195771
520 0.70969 0.2066 519 2195851
521 0.42866 0.20245 520 2195862
522 0.0959 0.20365 520 2195874
523 0.58387 0.20829999999999999 518 2195802
524 0.88443 0.2086 517 2195894
525 1.0581 0.21255 516 2171244
526 0.31735 0.23695 485 2171061
527 0.51705 0.2334 526 2173667
528 0.38598 0.23395 526 2171083
529 0.83241 0.2289 528 2171105
530 0.30618 0.23105 528 2426130
531 3.39734 0.2881 175 2170719
532 0.46146 0.26770000000000005 531 2644570
533 0.32388 0.26839999999999997 531 2595131
534 0.04252 0.26654999999999995 533 2661627
535 2.61298 0.2542 534 2661628
536 0.25183 0.241 535 2661633
537 0.18879 0.23904999999999998 536 2661636
538 0.20817 0.2373 537 2661679
539 0.60741 0.23385 538 2661680
540 0.46121 0.22935 539 11850948
541 2.87853 0.21989999999999998 539 2661718
542 0.07507 0.20825 541 2661719
543 0.6523 0.2061 541 2738557
544 0.51785 0.23420000000000002 538 2661726
545 1.11196 0.22744999999999999 544 2661758
546 0.4327 0.22115 545 2661769
547 0.65547 0.21685 546 2661782
548 0.33533 0.21305 547 2661786
549 0.43081 0.21015 548 2661811
550 0.54238 0.2065 549 2661817
551 0.72294 0.20195 550 2661819
552 1.30434 0.19490000000000002 551 2661993
553 0.14869 0.1899 552 2662004
554 0.08657 0.1891 553 2662118
555 0.39086 0.1875 554 2662126
556 0.3426 0.1851 555 2662173
557 0.99784 0.1861 553 2662015
558 0.13584 0.1824 557 2662035
559 0.53585 0.18109999999999998 557 2662046
560 0.15781 0.17895 559 2662066
561 1.05503 0.1762 559 2740106
562 3.9978 0.178 552 2662256
563 1.18325 0.1623 562 2662418
564 0.8316 0.1568 563 2662421
565 0.10585 0.1653 562 2662288
566 0.28986 0.1642 565 2662315
567 0.10993 0.16305 566 2662320
568 0.12548 0.16235 567 2662328
569 1.41075 0.1582 568 2662411
570 0.08742 0.1542 569 2662414
571 3.07299 0.154 568 11802513
572 0.89667 0.14379999999999998 571 11802701
573 0.21389 0.14545 571 11802524
574 4.53513 0.1847 551 2662641
575 0.76657 0.1678 574 2662643
576 0.51935 0.16415000000000002 575 2662658
577 0.24294 0.1649 575 11670544
578 0.15281 0.16955 574 2662678
579 0.63925 0.1673 578 2662684
580 0.04119 0.16535 579 2662685
581 0.31018 0.16820000000000002 578 2744150
582 0.54603 0.16575 581 2743914
583 1.98931 0.1588 582 2743833
584 0.68558 0.15165 583 2744198
585 0.51517 0.1521 583 2743783
586 0.1227 0.15045 585 2743690
587 1.00597 0.1476 586 2743604
588 0.38877 0.14415 587 2743527
589 0.53577 0.14195 588 2743458
590 0.65342 0.1392 589 2743412
591 0.46129 0.13665 590 2744291
592 0.11939 0.1374 590 2743394
593 0.35326 0.1363 592 2743382
594 1.06112 0.13474999999999998 592 2744738
595 0.20792 0.13195 594 2744774
596 0.08814 0.1405 589 2743465
597 2.45786 0.1442 586 2743767
598 0.84209 0.13640000000000002 597 5937508
599 0.8822 0.14855000000000002 585 2743786
600 0.67064 0.1447 599 2743795
601 0.15301 0.14275 600 2743807
602 0.4807 0.14195000000000002 600 2743811
603 0.34969 0.14545000000000002 599 5811903
604 0.12828 0.14429999999999998 603 5811904
605 0.47623 0.1629 582 2743949
606 0.41659 0.16044999999999998 605 2744409
607 0.3947 0.1582 606 2744434
608 0.16448 0.1567 607 2744444
609 0.27123 0.15555 608 2744468
610 0.12655 0.15444999999999998 609 2744473
611 0.2183 0.15355 610 2645995
612 0.71734 0.15115 611 2744546
613 0.93726 0.147 612 2744666
614 1.85999 0.14479999999999998 612 2745141
615 1.10584 0.13774999999999998 614 2745347
616 0.32189 0.1345 615 2745383
617 0.27681 0.13319999999999999 616 2745418
618 0.40624 0.13290000000000002 616 11781482
619 0.73514 0.13045 618 11856452
620 0.45475 0.12795 619 11856477
621 0.13996 0.1267 620 5977019
622 0.35919 0.12625 620 5800553
623 0.44217 0.1246 622 11856512
624 0.17678 0.1285 619 11856469
625 0.37424 0.13119999999999998 618 11855893
626 0.97371 0.12835 625 6778647
627 0.04673 0.12619999999999998 626 11855928
628 0.55014 0.139 614 2745144
629 1.63109 0.1341 628 2745276
630 0.37401 0.13685 628 2745145
631 0.11066 0.1358 630 2745162
632 0.36193 0.1352 630 11669700
633 0.15233 0.1341 632 2745160
634 0.19708 0.134 632 5977001
635 0.36079 0.1328 634 11669736
636 1.27858 0.13740000000000002 614 2745496
637 0.20161 0.13405 636 2745578
638 0.3667 0.1328 637 2745594
639 0.29749 0.13135000000000002 638 2745628
640 0.46865 0.1297 639 11661456
641 1.65885 0.1253 640 2746060
642 1.03955 0.1199 641 2746439
643 0.46132 0.121 641 2746171
644 0.46617 0.1277 640 11661471
645 0.70705 0.1253 644 4125466
646 0.04124 0.1238 645 3474151
647 0.07559 0.12355 646 11661504
648 0.54504 0.1256 644 3474150
649 0.12121 0.12425 648 11661578
650 0.72824 0.13045 638 11671254
651 0.04743 0.1288 650 11801350
652 0.25388 0.12835 650 11801360
653 1.10847 0.13119999999999998 637 11801183
654 1.90752 0.1565 605 2744898
655 0.43782 0.1503 654 5811595
656 0.53688 0.14784999999999998 655 2842052
657 1.12931 0.14855000000000002 654 2745036
658 0.08704 0.14550000000000002 657 2745039
659 0.8997 0.16475 581 11670500
660 0.78368 0.2017 550 2649296
661 0.67522 0.19655 660 2661857
662 1.10661 0.20450000000000002 549 2661891
663 0.05536 0.2003 662 2661941
664 1.19367 0.20734999999999998 548 11846527
665 0.51125 0.2011 664 11846535
666 0.14892 0.19874999999999998 665 6038427
667 0.04025 0.19915 665 11846701
668 0.08202 0.2026 664 11846687
669 0.44076 0.23020000000000002 544 2728328
670 0.75411 0.2253 669 2739986
671 0.61639 0.21975 670 2740012
672 0.57911 0.2151 671 2740037
673 0.64657 0.21045 672 2442085
674 0.17839 0.20734999999999998 673 2740050
675 0.62961 0.2197 670 6321079
676 0.21416 0.2164 675 6321176
677 0.05296 0.2154 676 11850657
678 0.6502 0.22575 669 2740094
679 0.56434 0.2396 535 2645557
680 0.69932 0.23415 679 2662809
681 1.09465 0.23249999999999998 679 11851008
682 0.1942 0.2271 681 11851026
683 0.08151 0.2276 681 11851012
684 0.28543 0.26495 534 2662722
685 0.69482 0.26025 684 2662748
686 1.0642 0.35919999999999996 5 11675136
687 0.87662 0.3463 686 11857731
688 0.08528 0.34005 687 11857728
689 0.81161 0.33545 687 11857738
690 1.66413 0.32035 689 11859665
691 0.13317 0.30965 690 11859570
692 0.14797 0.30805 691 11857815
693 0.6053 0.30374999999999996 692 11859548
694 0.2203 0.30589999999999995 692 11857842
695 0.58629 0.30135 694 11859476
696 0.29676 0.30295 694 11857863
697 0.28473 0.29969999999999997 696 11857920
698 0.59092 0.29805000000000004 696 11858018
699 0.08778 0.3298 689 11857741
700 0.31879 0.3499 686 11857705
701 1.73404 0.42785 4 2161673
702 4.1935 0.38325 701 2647315
703 1.07426 0.34585 702 2647452
704 0.44219 0.33609999999999995 703 2647533
705 0.76423 0.32855 704 2647751
706 0.34213 0.32175 705 2647759
707 0.35085 0.3217 705 9818399
708 0.48653 0.31675 707 11856822
709 3.04919 0.31535 704 2648634
710 2.61429 0.2837 709 2648758
711 0.69192 0.2666 710 2650940
712 0.92831 0.25880000000000003 711 2651025
713 1.97453 0.24555 712 2652344
714 0.62117 0.23404999999999998 713 2652401
715 0.60392 0.2289 714 2652405
716 0.44737 0.2246 715 2653610
717 0.67802 0.22010000000000002 716 2269521
718 0.06494 0.21715 717 2653825
719 1.26104 0.21215 718 2656036
720 0.63846 0.20505 719 2656041
721 0.06097 0.20245 720 2725500
722 0.22667 0.2014 721 2656049
723 0.08218 0.2003 722 2656051
724 0.37266 0.1987 723 11786225
725 0.8979 0.19745000000000001 722 11845963
726 0.33478 0.19319999999999998 725 2330646
727 0.13382 0.19385 725 11845988
728 1.36945 0.19745000000000001 721 2309751
729 0.47641 0.1911 728 2739107
730 0.04984 0.1893 729 2739118
731 0.14898 0.1886 730 2739201
732 0.10355 0.18775 731 2739209
733 0.04675 0.18725 732 2739231
734 0.09078 0.1868 733 2739260
735 0.42228 0.18575 733 2739256
736 0.80775 0.18645 730 2739185
737 0.12435 0.1834 736 2739193
738 1.06157 0.186 729 11846098
739 1.44811 0.20215 719 2738732
740 0.52631 0.1951 739 11773973
741 1.60819 0.188 740 11846406
742 0.83278 0.2195 716 2653611
743 0.16677 0.21555000000000002 742 2653780
744 0.04036 0.21605000000000002 742 2653695
745 0.36675 0.21450000000000002 744 12126491
746 0.48043 0.2113 745 11795549
747 0.06284 0.20925 746 2264232
748 0.10112 0.2086 747 11795554
749 0.0789 0.2092 746 11795581
750 0.55241 0.21100000000000002 745 2656078
751 0.83411 0.21275 744 2653759
752 0.36028 0.20825 751 12130950
753 0.22552 0.20875 751 12130939
754 0.5415 0.22425 715 2652436
755 1.03801 0.218 754 2652440
756 0.13543 0.2134 755 2652456
757 0.04459 0.21275 756 2652459
758 0.90957 0.21050000000000002 755 2461935
759 1.06999 0.2032 758 2652908
760 0.50338 0.19755 759 2322823
761 0.06187 0.1956 760 2652984
762 0.18636 0.19865 759 2653015
763 0.60542 0.2197 754 2653254
764 0.11725 0.21685 763 2653262
765 0.15744 0.21575 764 2357282
766 0.22785 0.21425 765 2653308
767 0.59223 0.21285 765 2653313
768 0.29607 0.23020000000000002 714 2653466
769 0.15144 0.22835 768 2653477
770 0.30488 0.23015 714 16594356
771 0.91276 0.23285 713 2653410
772 2.30805 0.21989999999999998 771 2655297
773 0.42701 0.2092 772 2655318
774 1.06749 0.20684999999999998 772 2655435
775 0.04105 0.20274999999999999 774 2656786
776 0.51836 0.20074999999999998 775 2656874
777 1.17105 0.19485 776 2656876
778 0.08528 0.1905 777 2656881
779 1.22207 0.1862 778 12125906
780 0.36401 0.18105 779 12126003
781 0.13992 0.1795 780 2268202
782 2.05663 0.1729 781 2657001
783 0.04945 0.17975000000000002 780 12126010
784 0.1841 0.18165 779 12126112
785 0.67908 0.188 778 2301583
786 0.83793 0.18309999999999998 785 2660425
787 0.88901 0.17765 786 2660445
788 0.17675 0.17435 787 2660460
789 0.56266 0.17320000000000002 787 2660472
790 0.38416 0.1792 786 2268194
791 0.3165 0.177 790 2661160
792 1.65577 0.17109999999999997 791 2661224
793 0.53376 0.1744 791 2722087
794 1.89456 0.1673 793 2739463
795 0.13282 0.16144999999999998 794 2739516
796 1.02454 0.15835 795 2739640
797 0.12555 0.16075 795 2739692
798 0.36951 0.1608 794 5810127
799 0.36291 0.1896 777 2659987
800 0.42644 0.187 799 2660019
801 0.23037 0.18485000000000001 800 2660026
802 2.14336 0.17745 801 1981960
803 0.35173 0.1698 802 2660340
804 0.47715 0.18405 800 2722281
805 0.0415 0.18235 804 2739365
806 0.95106 0.1956 776 11638528
807 0.18207 0.19169999999999998 806 2657080
808 0.13693 0.19065 807 2657086
809 1.4685 0.1854 808 2657232
810 0.40028 0.17935 809 2658327
811 0.72835 0.17585 810 2658336
812 0.78508 0.1713 811 11637502
813 0.33794 0.168 812 2658791
814 0.48838 0.16560000000000002 813 2661244
815 0.66912 0.16235 814 2661263
816 1.91044 0.1617 813 2310013
817 0.95103 0.1539 816 2661319
818 0.41434 0.15034999999999998 817 2661592
819 0.2823 0.1486 818 2661638
820 0.07479 0.1477 819 2661639
821 0.16089 0.14750000000000002 819 2331324
822 0.07365 0.1469 821 2661642
823 0.06494 0.14915 818 2661640
824 0.41291 0.1553 816 2661387
825 0.50544 0.1529 824 2661401
826 0.50718 0.1529 824 6320123
827 0.082 0.1514 826 11637201
828 1.17768 0.15335 816 5808562
829 1.10358 0.14755000000000001 828 2661470
830 0.23358 0.14425 829 2661496
831 0.14587 0.14334999999999998 830 2310847
832 0.08316 0.14279999999999998 831 2661525
833 0.05752 0.14245000000000002 832 2661527
834 1.42448 0.139 833 2661576
835 0.3096 0.135 834 2369879
836 1.87446 0.1303 835 11633950
837 2.34125 0.137 833 11823385
838 0.59702 0.13040000000000002 837 11823510
839 0.2608 0.1311 837 11823487
840 1.29019 0.1278 839 16183312
841 1.02208 0.12309999999999999 840 2736635
842 0.14167 0.12079999999999999 841 11823859
843 0.6526 0.12915 839 11823659
844 1.20633 0.14085 830 11824006
845 0.62135 0.1366 844 11824008
846 0.52333 0.13405 845 11824181
847 0.75378 0.13355 845 11824282
848 0.8949 0.13319999999999999 845 11824124
849 0.33589 0.13725 844 11824090
850 0.63489 0.16715000000000002 812 11637503
851 0.38967 0.1642 850 2658468
852 0.08155 0.16285 851 2658497
853 0.22282 0.16199999999999998 852 2658512
854 1.28222 0.15915 852 2661593
855 0.25964 0.155 854 2369028
856 0.76876 0.1537 854 2661610
857 0.16513 0.16485 850 11637521
858 2.67672 0.1726 809 2657665
859 0.35192 0.1636 858 2657674
860 0.08241 0.16435 858 2657727
861 1.20938 0.16075 860 2657784
862 0.64604 0.1623 860 2657864
863 1.15802 0.15739999999999998 862 2657865
864 1.41139 0.1507 863 2657975
865 0.23389 0.1537 863 2657915
866 0.27036 0.1524 865 2657926
867 1.50803 0.1565 862 2658027
868 0.64347 0.15084999999999998 867 2362918
869 0.09909 0.14895 868 2658111
870 0.26151 0.14805000000000001 869 2658147
871 0.16577 0.14700000000000002 870 2352432
872 0.20888 0.14605 871 2658171
873 0.51902 0.14425 872 2721623
874 0.1409 0.14265 873 2658290
875 0.18751 0.1419 874 2658300
876 0.23825 0.1409 875 2658318
877 0.91926 0.13934999999999997 875 2721591
878 0.15755 0.13685 877 2739919
879 0.15592 0.13685 877 2350196
880 0.133 0.1362 879 5811829
881 1.08273 0.1398 874 2350088
882 0.63819 0.13585 881 2739894
883 0.62394 0.14155 873 2721624
884 0.31268 0.13935 883 2739828
885 0.32145 0.13785 884 2739844
886 1.35654 0.1441 870 2658163
887 1.0307 0.14615 869 2658129
888 1.30601 0.1492 867 2658081
889 0.3826 0.14495 888 2658087
890 0.51631 0.14465 888 2658098
891 0.86197 0.18945 806 2656714
892 0.39841 0.20115 775 12043903
893 0.1404 0.1992 892 2656828
894 0.40874 0.19729999999999998 893 2656848
895 0.16597 0.19815 893 2656843
896 0.66207 0.2263 771 11824545
897 0.17869 0.2229 896 11824556
898 0.23495 0.22265000000000001 896 11824607
899 0.54922 0.25185 712 2717932
900 2.13434 0.25329999999999997 711 2654075
901 0.22794 0.2424 900 2654113
902 0.52572 0.2391 901 2654115
903 0.16667 0.24065 901 2654233
904 0.2298 0.2389 903 2654259
905 0.05386 0.2377 904 2654261
906 0.13558 0.2369 905 2654766
907 0.2292 0.23535 906 2655022
908 0.62743 0.23175 907 2655169
909 0.14486 0.22849999999999998 908 2317731
910 0.32925 0.22655 909 2655236
911 0.94146 0.23045 907 5980514
912 0.04153 0.22635 911 12066251
913 1.91087 0.22995 904 11792719
914 0.9161 0.236 903 2659199
915 0.54906 0.241 900 2659095
916 1.53127 0.2626 710 2648759
917 1.99214 0.24625 916 2648938
918 0.28043 0.2361 917 2648947
919 1.21863 0.23220000000000002 917 2648993
920 0.80924 0.2238 919 2648999
921 0.77172 0.22394999999999998 919 2649020
922 0.11358 0.22035 921 2576617
923 0.30378 0.2187 922 2649099
924 1.17548 0.21305000000000002 923 2649151
925 1.21296 0.2042 924 2649184
926 0.10181 0.19940000000000002 925 2649190
927 0.82962 0.19615 926 2649239
928 0.20687 0.1926 927 2649271
929 0.08695 0.1916 928 2649283
930 0.38721 0.1906 928 2649272
931 1.36374 0.18485000000000001 930 2649285
932 0.2518 0.17959999999999998 931 2649303
933 0.12378 0.17845 932 2649305
934 0.72189 0.1759 933 2650815
935 1.17498 0.1745 933 2649315
936 0.0779 0.17070000000000002 935 2649323
937 0.2772 0.1701 935 11748761
938 0.26725 0.16849999999999998 937 2649316
939 1.46196 0.1636 938 2649398
940 0.85275 0.1653 938 2649518
941 0.25173 0.16855 937 6323697
942 0.85729 0.1654 941 11822973
943 0.32455 0.1794 931 2304972
944 0.25364 0.1776 943 2649676
945 1.29102 0.17295 944 2649768
946 0.37639 0.17565 944 2649822
947 2.19173 0.16815 946 2739942
948 0.15663 0.16135 947 2739961
949 0.29452 0.1601 948 2739984
950 0.49203 0.15955 948 11748976
951 0.04091 0.15810000000000002 950 11748980
952 0.44195 0.1606 947 11749008
953 0.39218 0.1733 946 2649886
954 0.79666 0.1698 953 2649912
955 0.52806 0.166 954 2650158
956 0.60766 0.1628 955 2650167
957 0.29191 0.16025 956 2650462
958 0.28658 0.15865 957 2307682
959 0.99547 0.15525 958 2650593
960 0.18228 0.1606 956 2650169
961 0.70154 0.1625 955 2650704
962 0.39233 0.16335 955 11696076
963 0.68619 0.16035 962 12105789
964 0.28443 0.1577 963 11823141
965 1.82846 0.1729 943 11823270
966 0.69142 0.19095 927 2656319
967 0.73649 0.18619999999999998 966 2656335
968 0.34741 0.18745 966 2656346
969 0.38131 0.19845000000000002 925 2649194
970 0.14734 0.20805 924 2649186
971 0.43327 0.2532 916 2648853
972 0.50941 0.2946 709 2648645
973 1.41543 0.33009999999999995 703 2900025
974 2.484 0.3371 702 2737863
975 0.2144 0.3201 974 2737875
976 0.25334 0.3173 975 2738015
977 1.04907 0.3127 975 5811950
978 0.38397 0.41065 701 11675262
979 95.0407 0.442 3 2163389
980 6.31628 0.39485000000000003 979 2163447
981 5.49407 0.31545 980 2164660
982 2.2179 0.2721 981 2164684
983 0.4932 0.25865 982 2164711
984 0.66648 0.2532 983 2165954
985 1.18158 0.2509 983 2166126
986 0.97979 0.2412 985 2166127
987 0.50309 0.23475000000000001 986 21381536
988 1.02905 0.22835 987 2166708
989 1.02644 0.23254999999999998 986 2166154
990 2.62465 0.21794999999999998 989 2166796
991 0.28825 0.22704999999999997 989 2166164
992 1.01399 0.22185 991 2166224
993 0.89877 0.21434999999999998 992 2166230
994 0.8501 0.20775 993 2167234
995 1.57998 0.199 994 2167300
996 0.31218 0.20345000000000002 994 2167238
997 1.9032 0.19569999999999999 996 2167314
998 0.76557 0.1996 996 2167246
999 2.07802 0.18995 998 2167343
1000 0.7479 0.18059999999999998 999 2167346
1001 0.62827 0.1763 1000 2167347
1002 1.24735 0.17070000000000002 1001 2979178
1003 0.12255 0.174 1001 2167351
1004 1.74551 0.173 1000 2900412
1005 1.08059 0.1647 1004 2900435
1006 0.15939 0.1673 1004 2900424
1007 0.22089 0.18230000000000002 999 2167386
1008 0.7858 0.1791 1007 2167472
1009 0.33632 0.1756 1008 2167512
1010 2.28387 0.16795 1009 2167567
1011 0.17454 0.17404999999999998 1009 2167524
1012 0.47397 0.17520000000000002 1008 2167502
1013 1.29863 0.17754999999999999 1007 2167406
1014 0.25833 0.196 998 2167259
1015 0.4544 0.2092 993 2166240
1016 1.78055 0.2011 1015 2981738
1017 0.37525 0.2061 1015 2981714
1018 0.35084 0.21639999999999998 992 2166542
1019 0.8761 0.22235 991 2166184
1020 2.11252 0.21084999999999998 1019 2166869
1021 0.64154 0.2006 1020 2166873
1022 0.44178 0.1968 1021 2166874
1023 2.71957 0.1864 1022 2166939
1024 0.77738 0.17509999999999998 1023 2166946
1025 1.67489 0.16785 1024 2167031
1026 1.06978 0.16010000000000002 1025 7929055
1027 0.48825 0.16165000000000002 1025 7762768
1028 1.69044 0.1678 1024 2167021
1029 1.2799 0.17365 1023 2166998
1030 1.42038 0.1905 1022 2167115
1031 0.5653 0.1839 1030 2167126
1032 0.25289 0.1849 1030 2167121
1033 0.39862 0.19695000000000001 1021 2166901
1034 0.92955 0.19240000000000002 1033 2167137
1035 0.30196 0.1882 1034 2167146
1036 0.72416 0.18485000000000001 1035 2167175
1037 0.2372 0.18175 1036 2167179
1038 0.49769 0.18095 1036 2167188
1039 0.11831 0.18685000000000002 1035 2167158
1040 0.04273 0.1891 1034 2167163
1041 0.45084 0.19405 1033 2166910
1042 0.24537 0.20205 1020 2166891
1043 0.21401 0.218 1019 2167193
1044 0.09665 0.22549999999999998 991 2166198
1045 1.29441 0.21994999999999998 1044 2167210
1046 0.28997 0.2239 1044 2166213
1047 0.27358 0.24425 985 2166140
1048 0.3913 0.24130000000000001 1047 2166142
1049 0.11691 0.2391 1048 2166143
1050 0.5452 0.23725000000000002 1048 2166574
1051 0.37602 0.2333 1050 2166581
1052 0.84278 0.22825 1051 2166639
1053 0.36519 0.2233 1052 2166657
1054 0.10532 0.22139999999999999 1053 2166659
1055 0.39661 0.22025 1053 2166662
1056 0.71516 0.2159 1055 2166687
1057 0.09389 0.2183 1055 2166671
1058 0.12133 0.2243 1052 2166652
1059 1.07215 0.2273 1051 2375235
1060 0.30378 0.2336 1050 2166619
1061 0.21479 0.24205 1047 3409039
1062 4.2483 0.238 983 2165992
1063 0.42227 0.218 1062 2165999
1064 0.51109 0.2177 1062 2166014
1065 0.38443 0.2142 1064 2166027
1066 1.6973 0.20645 1065 2166073
1067 0.59303 0.1981 1066 2166080
1068 0.68694 0.19365 1067 2166100
1069 0.28433 0.19035000000000002 1068 2166104
1070 0.26732 0.19045 1068 2900696
1071 0.06625 0.18935 1070 2900699
1072 0.70453 0.18725 1070 2981765
1073 0.41941 0.1946 1067 2166094
1074 0.40896 0.19874999999999998 1066 7760638
1075 0.31964 0.2115 1065 2166037
1076 0.92453 0.25665000000000004 982 2164701
1077 0.51941 0.28049999999999997 981 2164664
1078 0.12968 0.34685 980 2163452
1079 0.04123 0.34575 1078 2163451
1080 3.48851 0.32435 1079 2164089
1081 1.03525 0.29745 1080 2164156
1082 0.34199 0.30125 1080 2164105
1083 2.14749 0.28785 1082 2164136
1084 0.7552 0.27259999999999995 1083 2899953
1085 1.48359 0.2617 1084 2899941
1086 1.45502 0.248 1085 2165671
1087 1.00684 0.2371 1086 2165734
1088 0.11049 0.2323 1087 2165736
1089 0.86266 0.22825 1088 2981548
1090 0.08686 0.2324 1087 2165744
1091 0.73207 0.229 1090 2165749
1092 0.71114 0.22310000000000002 1091 2168619
1093 0.13372 0.2197 1092 2168620
1094 0.13228 0.2197 1092 2168632
1095 0.07365 0.21889999999999998 1094 2168622
1096 0.48803 0.2173 1094 2168641
1097 0.47726 0.22405 1091 2900501
1098 0.42884 0.22039999999999998 1097 2900502
1099 1.58542 0.21265 1098 2979347
1100 0.91032 0.2152 1098 2981587
1101 0.54369 0.21994999999999998 1097 2982085
1102 0.1707 0.2313 1090 2165761
1103 0.04673 0.2304 1102 2165762
1104 0.69379 0.2384 1086 2165687
1105 0.26573 0.2343 1104 2165698
1106 0.55839 0.23085 1105 2899925
1107 0.45138 0.22665000000000002 1106 2899928
1108 0.31167 0.2272 1106 2899936
1109 1.12261 0.22854999999999998 1105 2165717
1110 0.51382 0.22185 1109 2165722
1111 0.23702 0.21885 1110 2168647
1112 0.25279 0.2169 1111 2375518
1113 2.41297 0.20700000000000002 1112 2903613
1114 0.12202 0.1977 1113 2375624
1115 0.61045 0.196 1113 2981529
1116 0.08698 0.2156 1112 2375538
1117 0.12399 0.2148 1116 2375542
1118 0.71547 0.2116 1117 2375561
1119 1.83755 0.2075 1117 2981979
1120 0.86742 0.19765 1119 2981987
1121 0.61121 0.19255 1120 2982133
1122 0.06464 0.19440000000000002 1120 2981994
1123 0.18706 0.20005 1119 2982005
1124 2.86551 0.20484999999999998 1116 7925987
1125 1.82431 0.21100000000000002 1111 2982052
1126 0.16929 0.20350000000000001 1125 2982082
1127 0.48968 0.20235 1125 2982058
1128 0.11424 0.2002 1127 2982061
1129 0.72377 0.19805 1127 2982109
1130 0.18498 0.19490000000000002 1129 2982113
1131 0.40745 0.1941 1129 2982121
1132 0.33259 0.2185 1110 2165726
1133 0.81723 0.21405000000000002 1132 2165769
1134 2.31556 0.20255 1133 2165887
1135 0.50226 0.1925 1134 2165893
1136 0.90604 0.1878 1135 2165921
1137 0.79044 0.1823 1136 2165935
1138 1.64138 0.1748 1137 7926555
1139 0.15906 0.16935 1138 3417431
1140 0.27364 0.1681 1139 7926564
1141 0.54547 0.16575 1140 7927075
1142 0.09504 0.1686 1139 7926580
1143 0.75018 0.16765000000000002 1138 3416293
1144 0.8669 0.16305 1143 7977560
1145 0.80451 0.15839999999999999 1144 3240756
1146 0.18748 0.1557 1145 7977745
1147 0.08139 0.155 1146 7977748
1148 0.12941 0.15589999999999998 1145 7977761
1149 0.36436 0.1596 1144 7977573
1150 0.17351 0.165 1143 7926789
1151 0.80755 0.1773 1137 2375329
1152 0.15169 0.1903 1135 2168663
1153 0.55569 0.18795 1152 2168674
1154 0.55094 0.18435 1153 2168696
1155 1.57073 0.17770000000000002 1154 2168737
1156 0.12857 0.18215 1154 2168700
1157 0.04295 0.18595 1153 2168682
1158 0.24695 0.185 1157 2168688
1159 0.24754 0.19335000000000002 1134 2165896
1160 3.57662 0.19835 1133 2165853
1161 0.1313 0.21665 1132 2165731
1162 0.77788 0.2208 1109 3127635
1163 0.17804 0.217 1162 3127641
1164 0.52083 0.23320000000000002 1104 3109141
1165 0.84573 0.22755 1164 3127611
1166 0.2449 0.2231 1165 3127615
1167 0.23923 0.2231 1165 3127622
1168 0.06907 0.23070000000000002 1164 3109142
1169 1.93991 0.2459 1085 2979140
1170 0.31832 0.23585 1169 2979155
1171 1.62483 0.26839999999999997 1083 2164151
1172 0.15559 0.25965000000000005 1171 2165424
1173 1.06291 0.25395 1172 2979282
1174 0.20938 0.2579 1172 2165431
1175 0.24334 0.25925 1171 2165439
1176 0.71519 0.25475000000000003 1175 2165441
1177 1.56706 0.2444 1176 7981485
1178 0.9125 0.23354999999999998 1177 7981591
1179 0.50881 0.23525000000000001 1177 7981626
1180 0.59959 0.2306 1179 7983143
1181 0.37167 0.2266 1180 7984904
1182 0.35958 0.22665000000000002 1180 7983174
1183 0.14534 0.22460000000000002 1182 7983309
1184 0.25649 0.22415000000000002 1182 7985091
1185 0.04709 0.2329 1179 7981698
1186 1.33042 0.24545 1176 2979303
1187 0.33062 0.23804999999999998 1186 2979309
1188 0.57717 0.237 1186 7925463
1189 0.04006 0.23435 1188 7925464
1190 1.06613 0.25315 1175 2165458
1191 1.35999 0.2422 1190 2165484
1192 1.32472 0.23070000000000002 1191 2165487
1193 1.9049 0.21775 1192 3303424
1194 0.08841 0.2248 1192 2903739
1195 0.27131 0.22335 1194 2165532
1196 0.4992 0.2203 1195 2165553
1197 0.57292 0.22 1195 2165568
1198 1.08519 0.2201 1194 2979218
1199 0.49192 0.2341 1191 2165506
1200 0.62694 0.2294 1199 2165516
1201 0.08184 0.23165000000000002 1199 2165511
1202 1.84167 0.24015 1190 2904295
1203 0.04187 0.23195 1202 2979254
1204 0.70063 0.22920000000000001 1202 7922287
1205 0.54818 0.2241 1204 7922480
1206 0.98526 0.22235 1204 7922398
1207 0.37947 0.2972 1082 2164164
1208 1.58029 0.33555 1079 2163473
1209 1.19439 0.31845 1208 2163480
1210 1.24054 0.3043 1209 2168751
1211 0.94966 0.29215 1210 2168782
1212 0.13346 0.2863 1211 2168802
1213 0.33436 0.28525 1211 2168789
1214 0.5429 0.28064999999999996 1213 2168814
1215 0.10041 0.28295 1213 2168800
1216 0.20988 0.29615 1210 2168759
1217 0.98197 0.30575 1209 2163488
1218 0.99466 0.29475 1217 2169216
1219 1.56346 0.28115 1218 3112877
1220 1.51361 0.2656 1219 2978946
1221 0.26983 0.25695 1220 2978949
1222 0.52888 0.25325 1221 2978950
1223 0.403 0.24895 1222 2978956
1224 0.25487 0.24965 1222 2978965
1225 0.48372 0.24630000000000002 1224 2979754
1226 0.18695 0.24330000000000002 1225 2979757
1227 0.50079 0.24625 1224 2979764
1228 0.12925 0.2434 1227 2979766
1229 1.93147 0.23575000000000002 1227 2979791
1230 0.48158 0.25344999999999995 1221 3161681
1231 0.91231 0.2471 1230 7929522
1232 1.74677 0.25025 1220 2978985
1233 0.05876 0.24205 1232 2978986
1234 0.58513 0.23925 1233 2979809
1235 0.64144 0.239 1233 7762021
1236 0.58711 0.2337 1235 7980029
1237 0.08912 0.23085 1236 7980052
1238 1.03705 0.22694999999999999 1236 7980416
1239 0.04565 0.236 1235 7979799
1240 0.04123 0.24209999999999998 1232 2979023
1241 0.91416 0.23795 1240 2979730
1242 1.05505 0.22960000000000003 1241 2979751
1243 1.2548 0.2365 1240 2979045
1244 0.51576 0.22899999999999998 1243 2979050
1245 1.32164 0.22575 1243 2979072
1246 0.60565 0.21800000000000003 1245 2979081
1247 0.16626 0.21975 1245 2979086
1248 1.11312 0.28345 1218 2169226
1249 2.15429 0.267 1248 2169360
1250 0.40685 0.25455 1249 2169361
1251 0.29958 0.25129999999999997 1250 2169364
1252 0.74359 0.24655 1251 2982096
1253 0.33359 0.2484 1251 2169373
1254 0.54706 0.24445 1253 2375250
1255 1.20074 0.23685 1254 2988730
1256 1.02033 0.22749999999999998 1255 2988741
1257 0.1703 0.2226 1256 2988745
1258 0.47921 0.22139999999999999 1256 2988749
1259 0.53464 0.21739999999999998 1258 2988757
1260 0.46317 0.21355 1259 2988764
1261 0.66872 0.21275 1259 2988773
1262 0.21927 0.21865 1258 2988755
1263 0.38509 0.2403 1254 7963569
1264 0.04295 0.23845 1263 7963581
1265 0.05247 0.23805 1264 3140796
1266 0.04984 0.2376 1265 7963608
1267 0.33738 0.23685 1264 7963836
1268 0.58789 0.2361 1263 7963700
1269 0.35956 0.2321 1268 7978225
1270 0.88364 0.22694999999999999 1269 3239665
1271 0.29545 0.22935 1269 20737860
1272 0.5812 0.23115 1268 7978318
1273 0.08801 0.22835 1272 7978339
1274 0.49918 0.22665 1272 7978350
1275 0.25745 0.2236 1274 3266027
1276 0.45906 0.22075 1275 7986852
1277 0.04483 0.21875 1276 7986854
1278 1.0862 0.21475 1276 7986893
1279 0.42521 0.2229 1274 7978528
1280 0.09749 0.22085 1279 7978532
1281 1.20713 0.2416 1253 2903705
1282 0.19187 0.23545 1281 2169387
1283 0.99343 0.23045 1282 2169391
1284 0.27714 0.23345 1282 2422198
1285 0.07344 0.23199999999999998 1284 2422199
1286 1.66852 0.2249 1285 2422299
1287 0.93417 0.2145 1286 2422307
1288 0.27702 0.2099 1287 2424187
1289 1.45135 0.2036 1288 2424226
1290 0.60678 0.19619999999999999 1289 2483543
1291 0.0402 0.194 1290 2483545
1292 0.73125 0.19165 1290 2981807
1293 0.46634 0.18764999999999998 1292 2981814
1294 0.3665 0.188 1292 2981828
1295 0.15734 0.19774999999999998 1289 2424245
1296 0.31865 0.21689999999999998 1286 2422315
1297 0.9932 0.2119 1296 2424252
1298 1.06552 0.20425 1297 2979584
1299 0.32864 0.1992 1298 2979588
1300 0.05457 0.2002 1298 2979592
1301 0.11024 0.2077 1297 2424284
1302 0.58027 0.2052 1301 2424293
1303 0.12808 0.20685 1301 2424302
1304 0.45313 0.2047 1303 2424343
1305 1.8995 0.19965 1303 2979576
1306 0.13036 0.21515 1296 2422327
1307 1.3191 0.2263 1285 2900214
1308 1.04594 0.2168 1307 2982146
1309 0.34693 0.21955000000000002 1307 2900225
1310 1.0903 0.214 1309 2988697
1311 1.16587 0.2137 1309 2980977
1312 2.09897 0.2017 1311 2981937
1313 0.29673 0.1932 1312 7932166
1314 0.05715 0.194 1312 2981961
1315 0.88432 0.20595 1311 2981001
1316 0.9974 0.1992 1315 2988702
1317 0.51806 0.19390000000000002 1316 2988711
1318 0.049 0.1955 1316 2988710
1319 1.35915 0.19795000000000001 1315 2981046
1320 0.82638 0.2328 1281 2903707
1321 0.26237 0.22820000000000001 1320 2982736
1322 0.76905 0.224 1321 2988562
1323 0.89974 0.2174 1322 2988576
1324 1.48845 0.20835 1323 2988787
1325 0.13232 0.20235 1324 2988788
1326 0.40902 0.20135 1324 2988789
1327 1.22053 0.19565 1326 2988801
1328 0.31802 0.19035 1327 2988855
1329 0.27448 0.1905 1327 2988860
1330 0.15978 0.19935 1326 2988802
1331 2.60885 0.19005 1330 2988865
1332 0.37141 0.18014999999999998 1331 2988869
1333 0.42755 0.17995 1331 7763193
1334 0.78977 0.19605 1330 2988809
1335 0.60468 0.19125 1334 7731327
1336 0.28184 0.1978 1330 2988813
1337 0.08972 0.21355000000000002 1323 2988579
1338 1.68859 0.20695 1337 2988589
1339 0.1657 0.20015 1338 2988591
1340 0.47774 0.19905 1338 2988594
1341 0.34391 0.19619999999999999 1340 2988597
1342 0.50862 0.1956 1340 2988599
1343 0.12328 0.19340000000000002 1342 2988601
1344 0.38795 0.1925 1342 2988603
1345 0.92734 0.18814999999999998 1344 2993276
1346 0.58501 0.18319999999999997 1345 7729669
1347 0.3916 0.1899 1344 2988609
1348 3.89052 0.1815 1342 2988637
1349 1.1682 0.16585 1348 2988816
1350 0.87795 0.16665 1348 2988650
1351 0.22657 0.21234999999999998 1337 2988584
1352 0.47767 0.21905000000000002 1322 2988569
1353 0.19419 0.21645 1352 2988571
1354 0.46685 0.2154 1352 2988684
1355 0.20978 0.2128 1354 2988685
1356 0.20618 0.2112 1355 2988688
1357 0.15369 0.21139999999999998 1355 2988689
1358 0.88911 0.21025 1354 2988694
1359 0.17156 0.2264 1321 2982765
1360 1.25895 0.2221 1321 3109556
1361 0.42143 0.22755 1320 2982730
1362 0.6281 0.2498 1250 3127847
1363 1.26471 0.25065000000000004 1249 7961128
1364 0.80986 0.27349999999999997 1248 2169233
1365 0.06107 0.2691 1364 2169235
1366 1.08811 0.26354999999999995 1365 2900322
1367 0.20987 0.2573 1366 2903927
1368 0.65942 0.25325 1367 2980292
1369 0.57244 0.2476 1368 2980317
1370 0.56547 0.2425 1369 2980467
1371 0.07447 0.2397 1370 2980468
1372 0.49876 0.254 1367 2900340
1373 0.45231 0.2666 1365 2169249
1374 0.65832 0.26125 1373 2169262
1375 0.7115 0.25475000000000003 1374 2169268
1376 1.01014 0.2534 1374 2421612
1377 1.19214 0.2434 1376 2423886
1378 0.16944 0.2374 1377 2423891
1379 0.1047 0.23765 1377 2423896
1380 0.44931 0.2353 1379 2423901
1381 0.39728 0.2355 1379 2423907
1382 0.72657 0.2308 1381 2423938
1383 0.23745 0.2268 1382 2423941
1384 1.15176 0.22125 1383 7926268
1385 1.30589 0.22255 1382 2423960
1386 0.59642 0.215 1385 2423970
1387 0.20124 0.21195 1386 2423976
1388 0.09266 0.21694999999999998 1385 2423967
1389 0.08678 0.21625 1388 2423969
1390 0.39162 0.23215000000000002 1381 2423909
1391 0.62083 0.22794999999999999 1390 2423991
1392 0.04747 0.2485 1376 2421624
1393 1.32855 0.24245 1392 2424015
1394 0.8994 0.2328 1393 2424035
1395 1.7268 0.22210000000000002 1394 2981237
1396 0.9314 0.21165 1395 2981255
1397 0.436 0.20650000000000002 1396 2981283
1398 0.57833 0.213 1395 21486090
1399 1.18899 0.2064 1398 2981371
1400 0.0405 0.20185 1399 2981373
1401 1.01575 0.19815 1400 2981410
1402 0.60822 0.1925 1401 2981417
1403 0.33156 0.18930000000000002 1402 2981420
1404 0.76605 0.1857 1403 2981444
1405 0.34 0.18215 1404 2981450
1406 0.37782 0.1799 1405 2981504
1407 0.14925 0.18275 1404 2981455
1408 0.74816 0.17995 1407 2981471
1409 0.74045 0.17995 1407 2981485
1410 0.26665 0.1768 1409 2981488
1411 0.5078 0.18875 1402 2981430
1412 0.13315 0.20124999999999998 1400 2981398
1413 0.47148 0.2003 1399 3109801
1414 0.49733 0.19690000000000002 1413 3172926
1415 0.0566 0.22875 1394 2424060
1416 0.72505 0.23349999999999999 1393 3109821
1417 0.62929 0.2278 1416 3122201
1418 0.47912 0.2233 1417 3122241
1419 0.34089 0.22005000000000002 1418 3122269
1420 0.04562 0.2212 1418 3122284
1421 0.12736 0.2247 1417 3122299
1422 0.52645 0.22825 1416 3122326
1423 1.58983 0.24130000000000001 1392 2421632
1424 1.21976 0.22925 1423 2421634
1425 0.42577 0.2225 1424 2422210
1426 0.04123 0.22065 1425 2422218
1427 1.29248 0.2155 1426 2422276
1428 0.57801 0.20834999999999998 1427 2422284
1429 0.05798 0.20600000000000002 1428 2422285
1430 1.47125 0.2051 1427 2981073
1431 0.42357 0.19824999999999998 1430 2988549
1432 1.17661 0.19275 1431 2993466
1433 0.78747 0.19405 1431 2988721
1434 0.09261 0.1994 1430 2981088
1435 1.35508 0.19445 1434 7731426
1436 2.1306 0.18295 1435 7931401
1437 0.10151 0.18945 1435 7930908
1438 1.352 0.21525 1426 2422247
1439 0.22381 0.21989999999999998 1425 7731519
1440 1.23062 0.2143 1439 7731506
1441 0.75778 0.21610000000000001 1439 7731525
1442 0.46015 0.22235 1424 7930436
1443 0.29298 0.21935 1442 7930441
1444 0.13953 0.21765 1443 7930729
1445 0.04982 0.21689999999999998 1444 7930738
1446 0.10135 0.2178 1443 7930806
1447 0.61221 0.21810000000000002 1442 7930496
1448 0.43745 0.21405000000000002 1447 7930554
1449 0.09811 0.21200000000000002 1448 7930556
1450 0.25551 0.23325 1423 2421645
1451 0.91538 0.2284 1450 2421646
1452 0.25954 0.22355 1451 2421651
1453 0.42314 0.22085 1452 2483494
1454 1.07388 0.21505000000000002 1453 2979611
1455 0.42819 0.20929999999999999 1454 2979612
1456 0.24813 0.20675 1455 2979620
1457 0.56042 0.2038 1456 2979625
1458 0.05489 0.2056 1456 2979628
1459 0.6273 0.2054 1455 2979639
1460 0.40255 0.21760000000000002 1453 2483511
1461 1.05888 0.212 1460 2979708
1462 1.52453 0.2025 1461 2979726
1463 1.00724 0.2122 1460 2979646
1464 0.15425 0.20779999999999998 1463 2979653
1465 0.04837 0.2082 1463 2979664
1466 1.49492 0.2026 1465 2980595
1467 0.27875 0.20695 1465 2979676
1468 0.47188 0.22065 1452 3122337
1469 0.10074 0.21839999999999998 1468 3122341
1470 0.18157 0.21805 1468 3122356
1471 0.99968 0.22065 1451 2980834
1472 0.83435 0.2135 1471 2980847
1473 0.04852 0.2165 1471 2980852
1474 1.01351 0.22799999999999998 1450 2421685
1475 0.97047 0.21994999999999998 1474 2421688
1476 0.55228 0.214 1475 2421988
1477 1.04259 0.20805 1476 2981123
1478 0.39223 0.20274999999999999 1477 2981129
1479 0.31351 0.20305 1477 2981138
1480 0.18856 0.2112 1476 2421999
1481 1.32172 0.21115 1475 2980895
1482 0.75389 0.2208 1474 2421734
1483 0.46962 0.216 1482 2421737
1484 0.33676 0.2129 1483 2421739
1485 0.54208 0.2096 1484 2421743
1486 0.76606 0.20875 1484 2980610
1487 0.58114 0.20379999999999998 1486 7761567
1488 0.21647 0.2051 1486 3109845
1489 0.70459 0.2018 1488 3122382
1490 0.9454 0.20095000000000002 1488 2980648
1491 0.12483 0.19715 1490 2980690
1492 0.96334 0.19340000000000002 1491 2980762
1493 1.11006 0.18645 1492 2980778
1494 0.68127 0.18064999999999998 1493 2980784
1495 0.08509 0.17825 1494 2980785
1496 0.04718 0.17785 1495 2980786
1497 1.01841 0.17959999999999998 1493 7955191
1498 0.53832 0.1748 1497 7956630
1499 0.26769 0.1724 1498 7956903
1500 1.86262 0.16625 1499 3416288
1501 0.04062 0.1608 1500 8053995
1502 0.36121 0.1597 1501 8054135
1503 0.04157 0.15860000000000002 1502 8054057
1504 1.05866 0.15785 1501 3416455
1505 0.7552 0.16935 1499 7957290
1506 0.65813 0.17125 1498 7957587
1507 0.04046 0.16915000000000002 1506 7957592
1508 0.21547 0.16865000000000002 1506 7957616
1509 0.30022 0.1755 1497 7955263
1510 2.72356 0.1668 1509 7956245
1511 0.09989 0.1743 1509 7955295
1512 1.40643 0.1855 1492 7730671
1513 0.17454 0.1804 1512 7954701
1514 0.08291 0.18065 1512 7932042
1515 0.61437 0.1785 1514 7932098
1516 0.1232 0.17620000000000002 1515 7953359
1517 1.01319 0.17355 1515 7953489
1518 0.18418 0.16995 1517 7953498
1519 0.6846 0.16745 1518 7953599
1520 0.25758 0.16865 1518 7953653
1521 0.04548 0.17035 1517 7954395
1522 0.4608 0.16885 1521 7954372
1523 0.57953 0.16849999999999998 1521 7954402
1524 0.21981 0.16620000000000001 1523 7954586
1525 0.091 0.18015 1514 7932057
1526 0.2152 0.19595 1491 2980716
1527 0.06103 0.195 1526 2980727
1528 0.92999 0.19205 1526 7745682
1529 0.98612 0.19419999999999998 1490 7931690
1530 0.13804 0.19035000000000002 1529 7931759
1531 0.58266 0.18885000000000002 1529 7931874
1532 0.15008 0.2136 1483 7678358
1533 0.47055 0.216 1482 3242395
1534 0.17117 0.21355000000000002 1533 7987278
1535 1.60511 0.22565 1450 2980502
1536 0.57115 0.21685 1535 2980566
1537 0.42566 0.21744999999999998 1535 2980530
1538 0.68375 0.2132 1537 2980579
1539 0.43015 0.21415 1537 2980547
1540 0.21214 0.24735000000000001 1392 2421642
1541 0.40497 0.26245 1373 7761155
1542 0.64625 0.2966 1217 2163494
1543 0.97269 0.28785 1542 2163495
1544 0.54384 0.27985000000000004 1543 2168852
1545 0.58689 0.27965 1543 2168860
1546 1.1647 0.27080000000000004 1545 2168866
1547 0.10565 0.26445 1546 2168867
1548 0.98051 0.25925 1547 2980163
1549 1.20288 0.24914999999999998 1548 2980194
1550 0.59261 0.24109999999999998 1549 7976454
1551 0.3619 0.24209999999999998 1549 2980224
1552 0.54335 0.23815 1551 2980229
1553 1.17553 0.2355 1551 2980265
1554 0.17735 0.2538 1548 2980180
1555 0.31391 0.2624 1547 2979831
1556 0.37421 0.25915 1555 2979861
1557 2.07486 0.248 1556 2979995
1558 0.55764 0.23620000000000002 1557 2980124
1559 0.26353 0.23270000000000002 1558 7750109
1560 0.53778 0.23155 1558 7750216
1561 0.93016 0.23465 1557 2980036
1562 1.64088 0.22405 1561 2980107
1563 2.37525 0.2467 1556 6941440
1564 0.49677 0.2339 1563 2979925
1565 0.66299 0.22905 1564 7976520
1566 1.50515 0.22565000000000002 1564 7725237
1567 0.71287 0.21675 1566 7977024
1568 0.42553 0.21785 1566 7976758
1569 0.34499 0.25925 1555 2979838
1570 0.56235 0.255 1569 2979852
1571 0.24597 0.26380000000000003 1546 2978891
1572 0.11564 0.26205 1571 2978932
1573 0.25922 0.26134999999999997 1571 2978898
1574 0.47729 0.2742 1545 2168881
1575 1.10995 0.26635 1574 2168897
1576 0.91923 0.25655 1575 2168936
1577 0.5058 0.24989999999999998 1576 2168946
1578 0.64097 0.24475 1577 2900245
1579 0.63528 0.23915 1578 2900250
1580 0.26389 0.24075000000000002 1578 7964440
1581 0.47291 0.23754999999999998 1580 7976199
1582 2.15873 0.2306 1580 7965027
1583 0.16991 0.22089999999999999 1582 7965060
1584 0.19912 0.21945 1583 7965078
1585 0.86288 0.21685 1583 7976062
1586 0.55881 0.21939999999999998 1582 7965399
1587 0.08166 0.24725 1577 2169190
1588 0.81403 0.24855 1576 2168973
1589 1.42534 0.23870000000000002 1588 2169204
1590 0.04871 0.2323 1589 2169207
1591 0.10943 0.23205 1589 2169206
1592 0.04219 0.2447 1588 2168982
1593 0.87416 0.24065 1592 2169024
1594 0.14582 0.23620000000000002 1593 2169028
1595 0.04272 0.2354 1594 2169030
1596 0.45819 0.23325 1595 2169040
1597 0.1975 0.23049999999999998 1596 2169054
1598 0.20514 0.23045 1596 2169046
1599 0.12884 0.23465 1595 2169065
1600 0.42214 0.235 1593 2169081
1601 1.40954 0.25435 1575 3122459
1602 0.59055 0.24514999999999998 1601 3122479
1603 0.04217 0.24230000000000002 1602 3122891
1604 0.11447 0.2416 1603 3122899
1605 0.1889 0.24164999999999998 1602 3122936
1606 1.47611 0.24130000000000001 1601 3122566
1607 0.33596 0.2334 1606 3122588
1608 0.3497 0.23055 1607 3122595
1609 0.04518 0.2289 1608 3122597
1610 0.39297 0.22744999999999999 1608 3122736
1611 0.42325 0.2241 1610 3122852
1612 0.09119 0.22205 1611 3122854
1613 0.09318 0.22205 1611 3122863
1614 0.22098 0.2249 1610 3122763
1615 0.14145 0.22344999999999998 1614 3122824
1616 0.328 0.2227 1614 3122815
1617 0.04566 0.2318 1607 3122596
1618 0.45202 0.26954999999999996 1574 2168927
1619 0.48785 0.2904 1542 2169212
1620 0.97191 0.29485 1217 3125474
1621 0.78679 0.28535 1620 3125581
1622 0.90547 0.27654999999999996 1621 3125664
1623 0.21853 0.27085 1622 3125673
1624 1.44717 0.2649 1622 3125961
1625 0.2695 0.2798 1621 3126813
1626 0.55858 0.27554999999999996 1625 3126831
1627 0.93818 0.27364999999999995 1625 3127317
1628 0.39667 0.26695 1627 3127320
1629 1.49344 0.25795 1628 3127507
1630 1.78934 0.243 1629 3127500
1631 1.08382 0.24605 1629 3127534
1632 0.18224 0.26415 1628 3127332
1633 5.22311 0.29685 1208 2164263
1634 0.79842 0.26425 1633 2164264
1635 0.48449 0.2581 1634 2903334
1636 1.9399 0.24705000000000002 1635 2168015
1637 0.97497 0.23420000000000002 1636 2168017
1638 0.36561 0.22855 1637 2375679
1639 2.70061 0.21945 1637 2168419
1640 1.46622 0.20345000000000002 1639 2168539
1641 0.96715 0.20525 1639 2168450
1642 0.10906 0.20129999999999998 1641 2168455
1643 0.7595 0.199 1641 2168487
1644 0.3515 0.2368 1636 2168038
1645 0.58057 0.23285 1644 2988776
1646 0.37197 0.23375 1644 2168044
1647 0.07113 0.2319 1646 2168045
1648 0.62433 0.22899999999999998 1647 2168062
1649 0.39381 0.2248 1648 2168064
1650 0.50245 0.2212 1649 2168144
1651 0.11878 0.21875 1650 2168146
1652 0.36174 0.2178 1650 2168156
1653 1.10028 0.21885 1649 2168181
1654 3.58009 0.2017 1653 2168341
1655 0.19392 0.2138 1653 2168187
1656 0.94538 0.2226 1648 2168081
1657 0.56088 0.21660000000000001 1656 2168094
1658 0.95389 0.21515 1656 2168100
1659 0.17916 0.2108 1658 2168103
1660 0.55775 0.2094 1658 2168113
1661 1.39591 0.20224999999999999 1660 2168116
1662 1.32127 0.19269999999999998 1661 2375741
1663 0.27985 0.18730000000000002 1662 2375743
1664 1.13606 0.18275000000000002 1663 2375977
1665 0.44825 0.18495 1663 2375753
1666 1.39684 0.17915 1665 2375997
1667 1.10384 0.18 1665 2904199
1668 0.38656 0.17535 1667 2375774
1669 1.97179 0.1707 1667 2979378
1670 0.82629 0.18555 1662 3127731
1671 0.69505 0.1807 1670 3127776
1672 0.23792 0.17775 1671 3127800
1673 0.16727 0.1765 1672 3127803
1674 0.14382 0.17654999999999998 1672 3127815
1675 0.30272 0.17754999999999999 1671 3127790
1676 0.05671 0.1827 1670 3127741
1677 0.77284 0.19455 1661 7716808
1678 0.83829 0.1891 1677 2375706
1679 0.09495 0.186 1678 2375716
1680 0.08487 0.18545 1679 2375719
1681 1.15385 0.18205 1679 7730788
1682 0.42602 0.18495 1678 2375786
1683 1.16616 0.1799 1682 2375792
1684 3.68139 0.16570000000000001 1683 2375917
1685 0.21568 0.15465 1684 2375922
1686 0.36196 0.15315 1685 2376004
1687 0.23765 0.1535 1685 2904318
1688 1.67076 0.1487 1687 2979487
1689 0.13098 0.15255000000000002 1687 2979387
1690 1.68113 0.15095 1684 2900386
1691 2.52491 0.16885 1683 2979536
1692 0.3128 0.1826 1682 2375828
1693 0.09978 0.18125000000000002 1692 2375832
1694 2.01763 0.17545 1692 3122042
1695 0.13199 0.1689 1694 3122047
1696 0.68459 0.1673 1694 3122065
1697 0.05415 0.16515000000000002 1696 3122066
1698 0.05921 0.16515000000000002 1696 3122067
1699 0.25771 0.16425 1698 3122069
1700 0.23701 0.16285 1699 3122077
1701 0.54348 0.162 1699 3122096
1702 0.60244 0.15885 1701 3122143
1703 0.38274 0.15945 1701 3122124
1704 0.16949 0.1645 1698 3122162
1705 0.15619 0.1914 1677 7716837
1706 0.04945 0.2071 1660 2903296
1707 0.76963 0.2041 1706 2168136
1708 0.89779 0.20365 1706 2903298
1709 0.34288 0.1992 1708 2903302
1710 1.58075 0.1926 1709 2982565
1711 1.19729 0.18335 1710 2988781
1712 2.36718 0.17980000000000002 1710 2982635
1713 1.08785 0.16920000000000002 1712 2982659
1714 0.40999 0.16485 1713 2982662
1715 0.54682 0.16215000000000002 1714 2988528
1716 0.63254 0.15889999999999999 1715 2988531
1717 0.04827 0.16049999999999998 1715 2988532
1718 1.11403 0.15739999999999998 1717 2993456
1719 0.39744 0.1593 1717 2988538
1720 1.05664 0.1554 1719 2988819
1721 0.18846 0.1577 1719 3244107
1722 1.17053 0.15415 1721 7747282
1723 0.97048 0.1633 1713 2982698
1724 0.47705 0.1987 1708 2903303
1725 0.09188 0.19669999999999999 1724 2903305
1726 0.42251 0.19495 1725 2981847
1727 0.83624 0.19355 1725 2981855
1728 0.85495 0.18785000000000002 1727 2981863
1729 0.71511 0.18275 1728 2981866
1730 0.16629 0.18445 1728 2981869
1731 0.14342 0.1902 1727 2981873
1732 0.25049 0.19615 1724 3106196
1733 0.57493 0.19335 1732 3127715
1734 0.44511 0.19375 1732 3127690
1735 0.98679 0.22755 1647 2903321
1736 0.10409 0.22305 1735 2979354
1737 0.97133 0.21965 1735 2979361
1738 0.56985 0.2298 1646 3106306
1739 1.82382 0.24755000000000002 1635 2981631
1740 0.2328 0.2383 1739 2981611
1741 0.25823 0.23620000000000002 1740 2981621
1742 1.10357 0.23465000000000003 1739 2981635
1743 0.05644 0.22975 1742 2981636
1744 0.44121 0.22815000000000002 1742 2981653
1745 0.19128 0.22555 1744 2981658
1746 0.15848 0.22565000000000002 1744 2981665
1747 1.34697 0.25415 1634 2167631
1748 0.30685 0.2465 1747 2167633
1749 0.52405 0.24280000000000002 1748 2167634
1750 0.47912 0.2384 1749 2167635
1751 0.06731 0.236 1750 2167636
1752 0.0508 0.2361 1750 2167671
1753 0.0408 0.2357 1752 2167672
1754 0.04313 0.23535 1753 2167674
1755 0.81785 0.23245 1752 7981153
1756 0.21176 0.22815000000000002 1755 7981245
1757 1.00726 0.2249 1755 8048177
1758 0.04062 0.2403 1749 2167637
1759 0.64247 0.2377 1749 2167928
1760 0.04405 0.23475000000000001 1759 2167929
1761 1.21261 0.2299 1759 2167953
1762 0.17708 0.22415 1761 2167958
1763 0.15364 0.22425 1761 2167963
1764 0.59784 0.2212 1763 2167980
1765 0.04144 0.22344999999999998 1763 2167991
1766 0.5673 0.2426 1748 2168581
1767 0.0454 0.2399 1766 2168585
1768 1.14735 0.2401 1748 2167708
1769 0.34629 0.23365 1768 2167710
1770 0.14342 0.2316 1769 2167713
1771 1.59714 0.2257 1769 2167911
1772 0.70304 0.23215 1768 2167736
1773 0.54436 0.22694999999999999 1772 2167757
1774 0.39983 0.22754999999999997 1772 2167794
1775 0.09971 0.22549999999999998 1774 2167797
1776 0.07228 0.2248 1775 2167803
1777 0.38142 0.22435 1774 2167841
1778 0.56067 0.22060000000000002 1777 2167866
1779 0.27323 0.2173 1778 2375687
1780 0.13231 0.2223 1777 2167848
1781 0.13801 0.2286 1772 2167747
1782 0.08607 0.22885 1772 2167788
1783 0.3989 0.24609999999999999 1747 2168597
1784 0.36879 0.2663 1633 2164271
1785 2.4656 0.3307 1078 2163455
1786 4.15524 0.2929 1785 2375410
1787 2.29806 0.3025 1785 2978845
1788 0.59311 0.28645 1787 2978870
1789 1.15081 0.2774 1788 2978878
1790 2.26713 0.27195 1788 7927675
1791 1.28562 0.28285000000000005 1787 2978853
1792 2.33844 0.33145 1078 3109247
1793 0.3467 0.3149 1792 3127949
1794 2.16348 0.3008 1793 3127986
1795 0.30311 0.28705 1794 3135730
1796 2.57689 0.27249999999999996 1795 3135774
1797 1.01548 0.25485 1796 3135793
1798 0.70009 0.24695 1797 3136062
1799 1.79169 0.23615 1798 3136780
1800 0.96376 0.23959999999999998 1798 3136224
1801 0.44537 0.23349999999999999 1800 3136255
1802 1.52294 0.2291 1800 3136411
1803 0.71155 0.2469 1797 3135829
1804 0.7028 0.24059999999999998 1803 3135850
1805 1.00094 0.23935 1803 3135870
1806 0.29654 0.23375 1805 3135874
1807 3.23547 0.22205 1805 3136060
1808 0.41701 0.2576 1796 3173255
1809 0.30668 0.2838 1795 3135734
1810 1.2399 0.2822 1794 3136930
1811 0.43796 0.27349999999999997 1810 3142182
1812 0.2858 0.27425 1810 3136951
1813 0.17656 0.27195 1812 3136977
1814 1.25304 0.26665 1812 7928722
1815 0.87369 0.26849999999999996 1812 3137057
1816 0.36063 0.26244999999999996 1815 3137070
1817 0.11596 0.26015 1816 3137104
1818 0.36801 0.25895 1816 3137161
1819 1.5658 0.25005 1818 3137384
1820 2.37401 0.24655 1818 3139502
1821 0.17754 0.23515 1820 3139506
1822 0.6579 0.2331 1820 3139579
1823 1.64676 0.2237 1822 3139746
1824 0.37873 0.22875 1822 3139818
1825 0.09389 0.2355 1820 3139877
1826 0.97547 0.25955 1815 3140134
1827 0.21189 0.2539 1826 3140186
1828 0.84455 0.2491 1827 3173239
1829 2.61877 0.24145 1827 7928365
1830 0.58587 0.2522 1826 3140685
1831 0.04012 0.31265 1793 3128304
1832 0.39237 0.31015000000000004 1831 3128701
1833 0.27455 0.3063 1832 3128783
1834 0.0595 0.30755 1832 3128791
1835 1.08709 0.3062 1831 3128325
1836 1.21254 0.2934 1835 3128624
1837 0.21766 0.29879999999999995 1835 3128362
1838 0.3508 0.31485 1792 3109250
1839 0.62047 0.30925 1838 3127909
1840 0.89829 0.30765 1838 3109262
1841 1.23608 0.29569999999999996 1840 3123097
1842 0.66345 0.2854 1841 3123101
1843 0.05914 0.28159999999999996 1842 3123122
1844 1.07005 0.27585 1843 3123436
1845 0.10185 0.2699 1844 3123570
1846 0.12435 0.2698 1844 3123470
1847 0.47371 0.26685000000000003 1846 3124907
1848 0.67234 0.2613 1847 3125067
1849 0.09158 0.25765 1848 3125074
1850 1.71712 0.25025 1848 3125135
1851 1.36811 0.25805 1847 3177466
1852 0.80833 0.26525 1846 3124702
1853 0.41785 0.2593 1852 3123477
1854 1.41906 0.25079999999999997 1853 3123852
1855 0.2246 0.2433 1854 3124695
1856 0.46686 0.24225 1854 3123949
1857 0.73338 0.23704999999999998 1856 3124590
1858 0.37241 0.23235 1857 3124614
1859 0.08441 0.23045 1858 3124633
1860 0.09618 0.2304 1858 3124643
1861 0.29997 0.23265 1857 3124665
1862 0.36067 0.2324 1857 3173447
1863 0.32753 0.25575 1853 3124807
1864 0.45971 0.2591 1852 3124736
1865 1.65767 0.27295 1843 3125336
1866 0.36512 0.28 1842 3125171
1867 0.51643 0.2862 1841 3123224
1868 1.82597 0.27425 1867 3123315
1869 0.32648 0.26339999999999997 1868 3123327
1870 0.12287 0.26439999999999997 1868 3123341
1871 0.659 0.28005 1867 7704607
1872 0.17093 0.27575 1871 7980580
1873 0.38532 0.27295 1872 7980873
1874 0.08524 0.2706 1873 7980989
1875 0.23668 0.26985000000000003 1873 7981004
1876 0.39399 0.2729 1872 7980966
1877 1.01787 0.27155 1871 7980761
1878 0.06652 0.30215000000000003 1840 3109264
1879 62.77505 0.2498 979 20831336
1880 0.19664 0.442 2 2162301
1881 0.58114 0.442 1 2162348
1882 10.95894 0.442 0 7405520
1883 2.04874 0.442 1882 3299024
1884 0.05201 0.44155 1883 2726330
1885 0.19729 0.43945 1884 2162540
1886 2.8998 0.41490000000000005 1885 8299401
1887 0.13216 0.4367 1885 2162545
1888 1.32931 0.42479999999999996 1887 2162929
1889 0.31237 0.41154999999999997 1888 2162934
1890 0.08691 0.41335 1888 8328735
1891 0.2812 0.43325 1887 2726326
1892 0.37517 0.42785 1891 2162556
1893 0.52421 0.4206 1892 2162571
1894 2.18719 0.39975 1893 2162913
1895 4.67619 0.38255 1893 2162714
1896 0.19346 0.34745000000000004 1895 2162717
1897 1.31724 0.33785 1896 2162731
1898 1.25299 0.32195 1897 2530997
1899 1.52223 0.30569999999999997 1898 2531002
1900 1.19207 0.29059999999999997 1899 3301926
1901 0.40918 0.28205 1900 10543520
1902 0.16273 0.27905 1901 2532745
1903 0.19774 0.2772 1902 2532751
1904 0.33911 0.27449999999999997 1903 2532761
1905 0.59206 0.26985000000000003 1904 2532866
1906 0.51588 0.2644 1905 2532875
1907 0.54299 0.2701 1904 2532773
1908 0.05138 0.26715 1907 2532775
1909 1.4655 0.28915 1899 2532783
1910 2.83588 0.26739999999999997 1909 2532798
1911 0.22122 0.25245 1910 2532805
1912 1.44279 0.24495 1911 2532883
1913 0.45637 0.23654999999999998 1912 2532890
1914 0.60198 0.2321 1913 2532896
1915 0.33616 0.23320000000000002 1913 8316560
1916 0.96604 0.24705 1911 2485428
1917 0.47961 0.24059999999999998 1916 2532817
1918 2.42555 0.22849999999999998 1917 3334918
1919 0.04032 0.23835 1917 2532821
1920 0.10249 0.23775000000000002 1919 2532826
1921 0.04105 0.2371 1920 2532827
1922 2.24637 0.2277 1921 2532922
1923 0.67866 0.21585 1922 2532926
1924 0.30754 0.21205000000000002 1923 2533700
1925 1.09126 0.2091 1923 2533717
1926 0.08044 0.21815 1922 2532931
1927 0.1558 0.2172 1926 2532936
1928 0.64681 0.2141 1927 2532949
1929 0.2606 0.21065 1928 2532961
1930 0.77542 0.20875 1928 2533695
1931 0.11281 0.23645 1921 2532835
1932 0.16466 0.2353 1931 2532837
1933 0.41217 0.23285 1932 2532847
1934 2.25908 0.22205 1933 2532918
1935 0.41994 0.22935 1933 2532857
1936 0.45995 0.2257 1935 3303774
1937 0.04727 0.2274 1935 3326073
1938 0.13161 0.22665000000000002 1937 2532860
1939 1.50225 0.23065 1921 3366898
1940 1.16884 0.23235 1920 3322644
1941 0.52044 0.27865 1909 2532789
1942 1.3488 0.3067 1898 2531035
1943 1.14716 0.29274999999999995 1942 3283951
1944 1.86269 0.277 1943 2532723
1945 0.75535 0.29485 1942 2531048
1946 1.54063 0.28265 1945 2531052
1947 0.70826 0.27105 1946 2533735
1948 0.0408 0.2744 1946 2531056
1949 0.12568 0.27354999999999996 1948 2531063
1950 1.46576 0.26575 1949 2532725
1951 0.04973 0.25834999999999997 1950 7289405
1952 0.11704 0.25755 1951 7289407
1953 0.55932 0.25595 1950 2532726
1954 0.77966 0.24975000000000003 1953 2532731
1955 2.57518 0.242 1953 3322801
1956 0.04159 0.2727 1949 2531070
1957 1.22301 0.2665 1956 2531074
1958 1.08883 0.2554 1957 2753839
1959 0.05975 0.2602 1957 2531078
1960 0.30295 0.2585 1959 2532735
1961 0.67219 0.25734999999999997 1957 3303831
1962 0.33376 0.25265 1961 3322837
1963 0.26936 0.25295 1961 8408357
1964 1.00509 0.26755 1956 2531083
1965 0.65293 0.2595 1964 2533119
1966 0.34433 0.26095 1964 2531089
1967 0.9019 0.2697 1948 2532648
1968 0.39618 0.28855 1945 3282784
1969 1.23078 0.28005 1968 3322889
1970 0.26143 0.28505 1968 3322856
1971 0.04016 0.34595 1896 2162733
1972 1.34072 0.3372 1971 2530948
1973 0.53321 0.34225 1971 2162740
1974 2.7911 0.322 1973 2530871
1975 0.93151 0.30000000000000004 1974 2532691
1976 0.68283 0.30135 1974 2753328
1977 0.89672 0.3332 1973 2162747
1978 1.05822 0.32125000000000004 1977 2162751
1979 1.14788 0.3083 1978 2534262
1980 0.23625 0.3135 1978 2530799
1981 0.92082 0.30684999999999996 1980 2532695
1982 0.16514 0.31115 1980 2530810
1983 1.94045 0.2994 1982 2532975
1984 2.43311 0.2762 1983 2534642
1985 1.66651 0.256 1984 2536478
1986 0.76 0.24480000000000002 1985 2536479
1987 0.43896 0.2395 1986 2536681
1988 0.23534 0.2366 1987 2536720
1989 0.85907 0.23395 1987 2536711
1990 0.07447 0.24109999999999998 1986 2536512
1991 0.08223 0.2404 1990 2536513
1992 0.21169 0.23909999999999998 1991 2536519
1993 1.04546 0.23375 1992 2536615
1994 1.31432 0.224 1993 2536644
1995 0.44646 0.21695 1994 2536651
1996 0.07432 0.21495 1995 2536652
1997 0.04144 0.22915000000000002 1993 8356346
1998 0.04257 0.2288 1997 8356352
1999 1.93407 0.23015 1992 2536594
2000 0.0539 0.2219 1999 2536598
2001 1.2716 0.23459999999999998 1991 3312270
2002 0.13173 0.22865 2001 7184086
2003 0.77254 0.2601 1984 2535802
2004 0.62056 0.25355 2003 2535909
2005 0.0408 0.2562 2003 8329132
2006 0.47649 0.2538 2005 8301669
2007 0.09449 0.2556 2005 8329141
2008 0.86194 0.2597 1984 2535840
2009 0.17909 0.25475000000000003 2008 2535854
2010 0.30606 0.2525 2009 2535859
2011 0.41835 0.252 2009 2535869
2012 1.4824 0.2435 2011 2485279
2013 1.17727 0.23195 2012 2536786
2014 0.37266 0.2484 2011 2535887
2015 0.67664 0.2437 2014 2536466
2016 0.65285 0.24380000000000002 2014 2535899
2017 0.04245 0.28835 1983 2532981
2018 1.54757 0.2801 2017 2533003
2019 0.1083 0.27155 2018 2532998
2020 4.73703 0.2495 2019 2533777
2021 0.42084 0.2263 2020 2533780
2022 0.24724 0.2236 2021 2533871
2023 0.42752 0.22089999999999999 2022 2533887
2024 0.77324 0.2162 2023 2533927
2025 1.35116 0.20815 2024 2534348
2026 0.79662 0.2102 2024 2533934
2027 0.4944 0.2054 2026 2533951
2028 0.35536 0.2023 2027 2533974
2029 1.99279 0.19665 2027 2536143
2030 0.24904 0.18885000000000002 2029 2536242
2031 0.04566 0.18785000000000002 2030 2536243
2032 0.46301 0.1862 2031 2536281
2033 0.84132 0.185 2031 7180334
2034 0.0584 0.1895 2029 2536288
2035 0.04225 0.18914999999999998 2034 2536293
2036 0.04012 0.18885000000000002 2035 2536295
2037 0.71583 0.1864 2036 2536324
2038 0.55122 0.18230000000000002 2037 2536429
2039 0.53168 0.18695 2036 3226554
2040 1.77212 0.18330000000000002 2035 2536455
2041 2.89303 0.1802 2034 2536427
2042 0.29544 0.2061 2026 7180350
2043 0.07577 0.20475 2042 8307735
2044 0.1172 0.20405 2043 8307737
2045 0.76108 0.20224999999999999 2042 8302350
2046 0.47117 0.19785000000000003 2045 7180355
2047 0.59101 0.1942 2046 8366294
2048 0.48172 0.19455 2046 3351046
2049 0.09121 0.1992 2045 8302373
2050 0.18315 0.19885 2045 8366273
2051 0.29327 0.1972 2050 8366311
2052 0.08683 0.22765000000000002 2020 2533783
2053 2.63149 0.21705000000000002 2052 2534338
2054 0.09216 0.2269 2052 2533788
2055 0.33859 0.22515000000000002 2054 2533810
2056 0.04032 0.2236 2055 2533811
2057 1.20484 0.2187 2056 2533860
2058 1.01063 0.21944999999999998 2056 2533846
2059 1.54359 0.22185 2020 3334041
2060 0.91765 0.2665 2019 2533013
2061 1.33202 0.2558 2060 7181051
2062 0.19465 0.24869999999999998 2061 2533026
2063 1.31979 0.242 2062 2533035
2064 0.3936 0.2345 2063 2533038
2065 0.09537 0.2358 2063 2533040
2066 0.78096 0.2321 2065 2533049
2067 0.13672 0.22825 2066 2533051
2068 0.09664 0.2273 2067 2533053
2069 0.43973 0.2251 2068 2533065
2070 0.79266 0.22015 2069 2533996
2071 0.33214 0.22194999999999998 2069 2533071
2072 0.12609 0.2201 2071 2533077
2073 1.62737 0.21339999999999998 2072 2533087
2074 1.00389 0.20355 2073 2533115
2075 0.09298 0.20684999999999998 2073 2533090
2076 2.04915 0.19924999999999998 2075 2533754
2077 0.37232 0.20515 2075 8309939
2078 0.93445 0.20045000000000002 2077 2533107
2079 1.59056 0.22055 2068 2534036
2080 1.40813 0.2213 2068 2533123
2081 0.34825 0.21434999999999998 2080 2533127
2082 1.01101 0.22360000000000002 2067 3303259
2083 0.28085 0.21839999999999998 2082 3286589
2084 0.34232 0.216 2083 8310504
2085 0.26163 0.2163 2083 8310544
2086 0.09298 0.21915 2082 3323295
2087 0.41168 0.24595 2062 8310666
2088 0.05876 0.24385 2087 7428110
2089 0.59957 0.25915 2060 2533016
2090 0.14306 0.25565 2089 2533018
2091 0.67377 0.2532 2089 8310822
2092 1.49285 0.26485000000000003 2018 2533005
2093 0.52208 0.25515 2092 2533010
2094 0.13042 0.257 2092 8302035
2095 2.07058 0.2775 2017 2534580
2096 0.39291 0.3252 1977 8328111
2097 2.13264 0.3258 1973 2532682
2098 0.56985 0.3095 2097 2532690
2099 0.84268 0.30795 2097 3322924
2100 0.35542 0.3011 2099 3322941
2101 0.43018 0.29674999999999996 2100 3322944
2102 0.57314 0.29595 2100 3321931
2103 0.08093 0.29235 2102 3322955
2104 0.61242 0.28864999999999996 2103 3322985
2105 0.761 0.28785 2103 3322966
2106 0.08449 0.30265 2099 3322934
2107 0.73947 0.33415 1973 2162796
2108 2.08638 0.31715000000000004 2107 2530900
2109 2.02941 0.29375 2108 2530918
2110 0.56358 0.2798 2109 3282351
2111 0.21505 0.2758 2110 3323004
2112 0.70877 0.27115 2111 3323005
2113 0.69938 0.2642 2112 3314784
2114 0.04433 0.2606 2113 2542927
2115 0.295 0.259 2114 3323161
2116 1.02607 0.25285 2115 3323185
2117 0.38557 0.24635 2116 3323188
2118 0.60697 0.2454 2116 3323196
2119 0.55257 0.24025000000000002 2118 3323203
2120 0.38556 0.241 2118 3323233
2121 0.20116 0.2384 2120 3323237
2122 0.84989 0.25365 2115 3323172
2123 0.41151 0.2656 2112 3323125
2124 0.63898 0.27149999999999996 2111 3323014
2125 0.50916 0.2658 2124 3323017
2126 0.48152 0.261 2125 3323108
2127 0.55148 0.2561 2126 3323118
2128 0.09572 0.25825 2126 3323117
2129 0.95037 0.25880000000000003 2125 3323055
2130 0.13306 0.26765 2124 3323021
2131 0.46863 0.28025 2109 2530921
2132 0.2026 0.2768 2131 2536744
2133 0.25002 0.3034 2108 2532671
2134 0.46765 0.2994 2133 2532676
2135 1.48661 0.2966 2108 2753336
2136 0.52852 0.28559999999999997 2135 2753337
2137 0.28846 0.2813 2136 2753340
2138 0.04159 0.27959999999999996 2137 2753342
2139 0.35187 0.281 2136 2753350
2140 1.34662 0.2814 2135 2753382
2141 0.44025 0.2722 2140 2753387
2142 0.25247 0.26875000000000004 2141 2753389
2143 0.04219 0.26980000000000004 2141 2753395
2144 0.09836 0.2691 2143 8309393
2145 0.23789 0.2732 2140 2753418
2146 1.10907 0.26655 2145 2753444
2147 0.93987 0.25670000000000004 2146 2753460
2148 0.87177 0.24835000000000002 2147 2753816
2149 0.08307 0.2607 2146 2753477
2150 1.12952 0.25505 2149 2753787
2151 0.2956 0.2589 2149 2753506
2152 0.41924 0.25555 2151 2753525
2153 0.78916 0.25 2152 2753554
2154 0.84048 0.2427 2153 2753584
2155 1.21471 0.23385 2154 2753628
2156 0.45577 0.2268 2155 2753632
2157 0.68724 0.2259 2155 2753649
2158 0.47803 0.2212 2157 2753778
2159 0.92229 0.21944999999999998 2157 2753701
2160 0.7809 0.21284999999999998 2159 2753712
2161 0.38661 0.2143 2159 2753721
2162 0.26665 0.2118 2161 8341858
2163 0.78127 0.20789999999999997 2162 2753757
2164 0.49616 0.25134999999999996 2152 8309250
2165 0.33336 0.32745 2107 2162809
2166 2.01602 0.3136 2165 2530639
2167 1.98401 0.2911 2166 2530655
2168 0.6075 0.2773 2167 2530679
2169 0.79109 0.27635 2167 3364472
2170 0.35921 0.2998 2166 2753830
2171 0.09219 0.32484999999999997 2165 2162820
2172 1.59872 0.31489999999999996 2171 2726133
2173 0.36696 0.30345 2172 2530696
2174 0.91087 0.29635 2173 2533173
2175 0.16586 0.2904 2174 2533175
2176 0.82217 0.2852 2175 2533182
2177 0.07162 0.28915 2175 2533183
2178 0.55169 0.28585 2177 2533192
2179 0.90868 0.27825 2178 2534161
2180 1.20757 0.26765 2179 2534201
2181 0.90957 0.2691 2179 2534186
2182 1.04088 0.27759999999999996 2178 2533200
2183 1.18602 0.26644999999999996 2182 2534211
2184 0.57101 0.26944999999999997 2182 3291182
2185 0.0409 0.26639999999999997 2184 7179803
2186 0.04134 0.266 2185 2533213
2187 1.2575 0.25980000000000003 2186 2534120
2188 1.34613 0.24770000000000003 2187 2534145
2189 0.66164 0.25075000000000003 2187 3323257
2190 0.21212 0.26475 2186 2533220
2191 0.1222 0.2631 2190 2533235
2192 0.20742 0.26155 2191 2533243
2193 0.68545 0.25734999999999997 2192 2533245
2194 0.98532 0.2496 2193 2533986
2195 0.54648 0.2516 2193 2534299
2196 0.41251 0.24719999999999998 2195 2534315
2197 1.06108 0.2556 2192 2533263
2198 0.82797 0.2469 2197 2533271
2199 0.22388 0.2422 2198 2533278
2200 0.74763 0.23795 2199 2533289
2201 0.42577 0.2329 2200 2533292
2202 1.53894 0.2249 2201 2534100
2203 0.64167 0.22845 2201 3299449
2204 1.20373 0.22970000000000002 2200 2533299
2205 0.41238 0.22305000000000003 2204 2534106
2206 0.26268 0.22365000000000002 2204 2533305
2207 1.22622 0.24514999999999998 2197 2753869
2208 1.58493 0.28054999999999997 2177 8301119
2209 1.62894 0.29255 2173 2530712
2210 0.7553 0.2798 2209 2533145
2211 0.48673 0.27344999999999997 2210 2533151
2212 0.21542 0.2748 2210 2534110
2213 0.6894 0.2801 2209 2530719
2214 1.27768 0.27015 2213 3291398
2215 1.85207 0.25515 2214 2533171
2216 0.0409 0.2763 2213 2530725
2217 1.05901 0.27085000000000004 2216 2530726
2218 0.87552 0.26139999999999997 2217 2532650
2219 1.81128 0.25705 2217 2532664
2220 0.52447 0.24614999999999998 2219 2533136
2221 0.1811 0.2477 2219 2532669
2222 0.64807 0.27285000000000004 2216 3301690
2223 0.29556 0.26815 2222 2530740
2224 0.63688 0.2636 2223 2530746
2225 0.29673 0.2591 2224 7263259
2226 0.08391 0.2573 2225 2530758
2227 0.79591 0.2532 2226 2530762
2228 0.48914 0.24730000000000002 2227 2532651
2229 0.45066 0.2475 2227 2531105
2230 0.16055 0.25615 2226 2530768
2231 0.78286 0.2518 2230 2531192
2232 0.77428 0.25185 2230 2530795
2233 0.82418 0.25665000000000004 2224 3301672
2234 0.16491 0.25205 2233 3323261
2235 0.87465 0.26535 2222 3301695
2236 0.54496 0.30245 2172 3226527
2237 0.85242 0.3192 2171 8309543
%root 2163389 2161670 3299024
%pre PEN1 2532751 2532798 2532821 2532931 2533077 2162714 2531078 2533271 2309751 1949165 11682465 2739209 2532731 2532821 2532837 8309939 2533040 2753444 2533220 2533278 2536512 2536681 2653466 2532847 2532936 3326073 2533071 2726330 2530740 2530768 2542927 2172136 2172226 11805036 7179803 8366273 2533071 2162714 2726330 2530740 2530768 2531078 2533220 2533788 2533810 2536512
%pre PEN2 2532821 3321931 8307735 2533090 2162556 2753554 2753584 2533887 2536512 2268194 2173601 2176921 2528728 2656051 2656051 2739201 12043903 2532745 2532798 2532890 3314784 3321931 2533040 2533049 3282351 3291182 3291398 2162714 2753418 2753444 2753584 2753721 2530810 2533220 2535840 2536478 2542927 2532671 2171623 1949014 5811672 2649020 2649190 2656041 11828075 2659987 2172031 2268194 1949123 1949271 2176920 2653466 2655435 12043903 2532837 8366273 2533077 2533090 2753506 2533871 2536242 2536681 2195692
%pre EPG 1734133 2177314 2177370 2177399 2660026 2661758 2661769 2662722 2172044 2172384 2172392 2172459 2304972 2352432 1948955 1948957 1949158 1949222 2176921 2177043 2177043 2510386 11692718 11692718 2566130 2172852 2172852 2173008 2173111 2173111 2656051 2657086 2658171 2737440 2737600 2743527 2743604 2743690 1734133 2662118 2662126 2662320 2171623 2171700 2172226 2172619 1949014 1949122 1949140 2176940 2177129 2177136 2528728 2645995 2743767 2745496 2745628 2807233 11861576 2661633 2661636 2661782 2662126 2662288 2171665 1949132 1949165 1949222 1949291 2177129 2177133 2177136 11682465 2744434 2744473 2745347 2177310 2171362 2171362 2172318 2304972 2309751 2310013 2310013 2310847 2173601 2173683 5808562 2649676 2649886 2649912 2653262 2653466 2657080 2657864 12051149 2177310 2177399 2195661 2660026 2171362 2172031 2172180 2172226 2172440 2310013 2310847 2352432 2369879 1949158 2177136 2177156 2426145 11691826 2644982 2644995 2649912 2654766 2657080 2739209 11770714 11859570 11859665 2177370 2659987 2660026 2661525 2171362 2172136 2172180 2172619 2304972 2362918 2369879 1746802 1949008 1949222 2176908 2177042 2426145 2426153 2528728 2546320 2576617 2649099 2172670 2649303 2656041 2657864 2739201 11803240 11803240 11803284 11805036 11861576 2510386
%pre PEG 2172226 2173683 2176940 2654766 2739201
%pre D7 21381536
%pre R 2532751 2532798 2532821 2532931 2533077 2162714 2531078 2533271 2309751 1949165 11682465 2739209 2532731 2532821 2532837 8309939 2533040 2753444 2533220 2533278 2536512 2536681 2653466 2532847 2532936 3326073 2533071 2726330 2530740 2530768 2542927 7179803 8366273 2533071 2162714 2726330 2530740 2530768 2531078 2533220 2533788 2533810 2536512 2532821 3321931 8307735 2533090 2162556 2753554 2753584 2533887 2536512 2268194 2173601 2176921 2528728 2656051 2656051 2739201 12043903 2532745 2532798 2532890 3314784 3321931 2533040 2533049 3282351 3291182 3291398 2162714 2753418 2753444 2753584 2753721 2530810 2533220 2535840 2536478 2542927 2532671 2532837 8366273 2533077 2533090 2753506 2533871 2536242 2536681 1734133 2177314 2177370 2177399 2660026 2661758 2661769 2662722 2172044 2172384 2172392 2172459 2304972 2352432 1948955 1948957 1949158 1949222 2176921 2177043 2177043 2510386 11692718 11692718 2566130 2172852 2172852 2173008 2173111 2173111 2656051 2657086 2658171 2737440 2737600 2743527 2743604 2743690 1734133 2662118 2662126 2662320 2171623 2171700 2172226 2172619 1949014 1949122 1949140 2176940 2177129 2177136 2528728 2645995 2743767 2745496 2745628 2807233 11861576 2661633 2661636 2661782 2662126 2662288 2171665 1949132 1949165 1949222 1949291 2177129 2177133 2177136 11682465 2744434 2744473 2745347 2172226 2173683 2176940 21381536 2743767
%post PEN1 2753395 2532883 2536242 2532837 2536651 2753757 4125466 1949232 2173379 2442085 2737743 2595131 2170894 2172300 2177144 2485428 2485279 2530758 8309939 7181051 8310666 2534106 3323233 2661576 2172300 2324038 2661627 2177452 2534211 2536644 8356346 2532731 2566130 9916071 2661470 2172288 2739828 2649296 2738443 5800553 2534299 2533235 2534348 7289405 7263259 2532835 2753342 3303774 3301672
%post PEN2 2533115 3301926 2533123 2162731 10543520 2737863 2661891 2426180 2177190 2655169 2426214 10747107 2173242 2173570 3286589 2530921 8341858 2753340 2753460 2534262 3283951 2533173 3312270 2726326 9818399 2171476 2177160 2744444 2576617 10127008 1949289 2649272 2268202 11164933 1949146 7184086 2533107 2533780 7405520 2536324 2536594 2535909 2533127 2533136 7428110 2532866 2532773 2753632 2536455
%post EPG 11851157 15180175 11854862 11804756 2171895 2196222 2854215 2580310 6121490 2516311 2516272 2455612 2586336 6126541 2171798 2455582 2177423 1984326 1772400 2172293 1949020 2177182 2176899 2419688 2173288 12051698 5977019 5977001 12050504 5942757 5776460 5811978 2740037 1949176 2867047 11861777 6038427 5811903 1735762 5942274 2662684 2743382 6164665 2662315 2744468 2171690 11671254 2662418 11805612 1734133 5937508 2743783 2501870 5947315 2809534 6038427 2171903 2442085 5942283 1949036 1735726 2661758 2744738 2469015 1949163 1949188 6778647 3474150 3474151 11855893 6776760 2738306 12125255 2658098 2177292 2177292 2350196 2350088 2657915 2739185 2177101 2656335 5980514 2177267 2307682 2722281 2661263 2195802 2171244 2721624 2173653 2173639 2301583 2177114 11773973 5809991 2177091 2177121 2177070 2177322 2331324 11845174 2330646 11845216 11843465 2369028 2655318 2177436 2737655 2324038 2737438 2737118 2737233 11846406 2426225 16183312 2317731 2653254 16594356 2652456 2736635 2322823 2269521 2264232 2195970 2195894 2195862 2177258 2173288 2661319 11696076 2649768 2650704 12105789 2177472 18105578 2592853 2177433 2738132 2737149 5811845 11821713 2173702 2177012 2176966 2988697 2988597 3416288 3416293 2993276 3127690 3416455 7926564 2903302 6941440 2166014 2979838 2980036 3136977 2981420 2167210
%post PEG 2662411 11803042 12334250 11803339 5812017 2658327 2195771 11825904 2867818 2658336 2177197 14005281 2722087 1981960 2177352 5811595 2738732 1949051 2744409 2635914 2807609 2426223 2461935 2636046 2195995 2650462 2661244 2661610 2654261 2658468 2196063 2740012 2737270 2172787 2176995 2173691 6323697 2644987 4709062 2172148 2173426 2653825 11858018 2172507 2173358 6317067 6320123 6321079 6321176 12049697 6323321 2745039 2745036
%post D7 3173447 3123949 2168982 2980467 2169206 3122891 7978532 7978528 3266027 3109801 3140796 3172926 7931759 7953653 2980784 7977745 7954701 2375250 3126831 7750109 2979081 2979730 3122566 2988730 2979754 3161681 2169046 7954402 2168897 2169028 2979809 3127317 2899953 2900250 2978932 3106306 2980762 7930554 2167866 2980785 2979140 7930496 3242395 2981255 2979708 7930729 2980317 2980292 2981410 2421743 2424060 3127635 7925463 3127622 3112877 2981450 7926789 8054135 3240756 2982662 3125474 2423970 2169233 2982635 2981665 2981611 2981548 2900322 2423941 2423909 2981485 2422284 2168682 2168622 2168581 2167757 2167672 2165736 2167797 2982736 2988809 2422307 2424187 2988569 2422198 2422307 3239665 21486090 2981088 2165921 2168663 7956903 2423967 3244107 2165761 2979611 3122356
%post R 2753395 2532883 2536242 2532837 2536651 2753757 1949232 2173379 2442085 2737743 2595131 2170894 2172300 2177144 2485428 2485279 2530758 8309939 7181051 8310666 2534106 3323233 2661576 2172300 2324038 2661627 2177452 2534211 2536644 8356346 2532731 5800553 2534299 2533235 2534348 7289405 7263259 2532835 2753342 3303774 3301672 2533115 3301926 2533123 2162731 10543520 2737863 2661891 2426180 2177190 2655169 2426214 10747107 2173242 2173570 3286589 2530921 8341858 2753340 2753460 2534262 3283951 2533173 3312270 2726326 7184086 2533107 2533780 7405520 2536324 2536594 2535909 2533127 2533136 7428110 2532866 2532773 2753632 2536455 11851157 15180175 11854862 11804756 2171895 2196222 2854215 2580310 6121490 2516311 2516272 2455612 2586336 6126541 2171798 2455582 2177423 1984326 1772400 2172293 1949020 2177182 2176899 2419688 2173288 12051698 5977019 5977001 12050504 5942757 5776460 5811978 2740037 1949176 2867047 11861777 6038427 5811903 1735762 5942274 2662684 2743382 6164665 2662315 2744468 2171690 11671254 2662418 11805612 1734133 5937508 2743783 2501870 5947315 2809534 6038427 2171903 2442085 5942283 1949036 1735726 2661758 2744738 2469015 1949163 1949188 6778647 3474150 3474151 11855893 6776760 2738306 2988697 2988597 3416288 3416293 2993276 3127690 3416455 7926564 2903302 6941440 2166014 2979838 2980036 3136977 2981420 2167210 2662411 11803042 12334250 11803339 5812017 2658327 2195771 11825904 2867818 2658336 2177197 14005281 2722087 1981960 2177352 5811595 2738732 1949051 2744409 2635914 2807609 2426223 2461935 2636046 2195995 2745039 2745036 3173447 3123949 2168982 2980467 2169206 3122891 7978532 7978528 3266027 3109801 3140796 3172926 7931759 7953653 2980784 7977745 7954701 2375250 3126831 7750109 2979081 2979730 3122566 2988730 2979754 3161681 2169046 7954402 2168897 2169028 2979809 3127317 2899953 2900250 2978932 3106306 2980762 7930554 2167866 2980785 2979140 7930496 3242395 2981255 2979708 7930729 2980317 2980292 2981410 2421743 2424060 3127635 7925463 3127622 3112877 2981450 7926789 8054135 3240756 2982662 3125474 2423970 2169233 2982635 2981665 2981611 2981548 2900322 2423941 2423909 2981485 2422284 2168682 2168622 2168581 2167757 2167672 2165736 2167797 2982736 2988809 2422307 2424187 2988569 2422198 2422307 3239665 21486090 2981088 2165921 2168663 7956903 2423967 3244107 2165761 2979611 3122356 2743811 2426125 11748976 2173029 2720399
%pre PEN1-5R 2532751 2532798 2532821 2532931 2533077 2162714 2531078 2533271
%pre PEN1-5L
%pre PEN1-6Ra 2309751 1949165 11682465 2739209 2532731 2532821 2532837 8309939 2533040 2753444 2533220 2533278 2536512 2536681
%pre PEN1-6Rb 2653466 2532847 2532936 3326073 2533071 2726330 2530740 2530768 2542927
%pre PEN1-6La
%pre PEN1-6Lb 2172136 2172226 11805036
%pre PEN1-7R 7179803 8366273 2533071 2162714 2726330 2530740 2530768 2531078 2533220 2533788 2533810 2536512
%pre PEN1-7L
%pre PEN2-5R 2532821 3321931 8307735 2533090 2162556 2753554 2753584 2533887 2536512
%pre PEN2-5L
%pre PEN2-6Ra 2268194 2173601 2176921 2528728 2656051 2656051 2739201 12043903 2532745 2532798 2532890 3314784 3321931 2533040 2533049 3282351 3291182 3291398 2162714 2753418 2753444 2753584 2753721 2530810 2533220 2535840 2536478 2542927 2532671
%pre PEN2-6Rb
%pre PEN2-6La 2171623 1949014 5811672 2649020 2649190 2656041 11828075
%pre PEN2-6Lb 2659987 2172031 2268194 1949123 1949271 2176920 2653466 2655435 12043903
%pre PEN2-7R 2532837 8366273 2533077 2533090 2753506 2533871 2536242 2536681
%pre PEN2-7L 2195692
%pre EPG-5Ra 1734133 2177314 2177370 2177399 2660026 2661758 2661769 2662722 2172044 2172384 2172392 2172459 2304972 2352432 1948955 1948957 1949158 1949222 2176921 2177043 2177043 2510386 11692718 11692718 2566130 2172852 2172852 2173008 2173111 2173111 2656051 2657086 2658171 2737440 2737600 2743527 2743604 2743690
%pre EPG-5Rb 1734133 2662118 2662126 2662320 2171623 2171700 2172226 2172619 1949014 1949122 1949140 2176940 2177129 2177136 2528728 2645995 2743767 2745496 2745628 2807233 11861576
%pre EPG-5Rc 2661633 2661636 2661782 2662126 2662288 2171665 1949132 1949165 1949222 1949291 2177129 2177133 2177136 11682465 2744434 2744473 2745347
%pre EPG-5La 2177310 2171362 2171362 2172318 2304972 2309751 2310013 2310013 2310847 2173601 2173683 5808562 2649676 2649886 2649912 2653262 2653466 2657080 2657864 12051149
%pre EPG-5Lb 2177310 2177399 2195661 2660026 2171362 2172031 2172180 2172226 2172440 2310013 2310847 2352432 2369879 1949158 2177136 2177156 2426145 11691826 2644982 2644995 2649912 2654766 2657080 2739209 11770714 11859570 11859665
%pre EPG-5Lc 2177370 2659987 2660026 2661525 2171362 2172136 2172180 2172619 2304972 2362918 2369879 1746802 1949008 1949222 2176908 2177042 2426145 2426153 2528728 2546320 2576617 2649099 2172670 2649303 2656041 2657864 2739201 11803240 11803240 11803284 11805036 11861576
%pre EPG-6Ra
%pre EPG-6Rb
%pre EPG-6La
%pre EPG-6Lb 2510386
%pre PEG-5R 2172226 2173683 2176940
%pre PEG-5L 2654766 2739201
%pre PEG-6R
%pre PEG-6L
%pre D7-5R4La
%pre D7-5R4Lb
%pre D7-6R3La
%pre D7-6R3Lb
%pre D7-7R2L
%pre D7-2R7L
%pre D7-1R9R8L 21381536
%pre GE-r1 2661633 2661636 2661636 2661684 2661782 2662118 2662763 1949008 1949014 1949122 1949165 1949212 1949271 1949291 2176908 2177133 2177156 11661530 11682465 2644982 2645557 2645995 2737492 2744473 2745496 2745586 2745628 11828075 11834312 11861576
%pre NO-LAL-G 2533077 2530810 2531078 2533253 2533786 2533788 2536242 2536327 2536681
%pre Ra 2743767
%pre Rb
%pre Rc
%pre Rd
%pre Re
%pre Rf
%pre Rg
%post PEN1-5R 2753395 2532883 2536242 2532837 2536651 2753757
%post PEN1-5L 4125466
%post PEN1-6Ra 1949232 2173379 2442085 2737743 2595131 2170894 2172300 2177144 2485428 2485279 2530758 8309939 7181051 8310666 2534106 3323233
%post PEN1-6Rb 2661576 2172300 2324038 2661627 2177452 2534211 2536644 8356346 2532731
%post PEN1-6La 2566130 9916071 2661470 2172288 2739828
%post PEN1-6Lb 2649296 2738443
%post PEN1-7R 5800553 2534299 2533235 2534348 7289405 7263259 2532835 2753342 3303774 3301672
%post PEN1-7L
%post PEN2-5R 2533115 3301926 2533123 2162731 10543520
%post PEN2-5L
%post PEN2-6Ra 2737863 2661891 2426180 2177190 2655169 2426214 10747107 2173242 2173570 3286589 2530921 8341858 2753340 2753460 2534262 3283951 2533173 3312270 2726326
%post PEN2-6Rb
%post PEN2-6La 9818399 2171476 2177160 2744444 2576617 10127008
%post PEN2-6Lb 1949289 2649272 2268202 11164933 1949146
%post PEN2-7R 7184086 2533107 2533780 7405520 2536324 2536594 2535909 2533127 2533136 7428110 2532866 2532773 2753632 2536455
%post PEN2-7L
%post EPG-5Ra 11851157 15180175 11854862 11804756 2171895 2196222 2854215 2580310 6121490 2516311 2516272 2455612 2586336 6126541 2171798 2455582 2177423 1984326 1772400 2172293 1949020 2177182 2176899 2419688 2173288 12051698
%post EPG-5Rb 5977019 5977001 12050504 5942757 5776460 5811978 2740037 1949176 2867047 11861777 6038427 5811903 1735762 5942274 2662684 2743382 6164665 2662315 2744468 2171690 11671254 2662418 11805612 1734133 5937508 2743783 2501870 5947315 2809534 6038427 2171903 2442085 5942283 1949036 1735726
%post EPG-5Rc 2661758 2744738 2469015 1949163 1949188 6778647 3474150 3474151 11855893 6776760 2738306
%post EPG-5La 12125255 2658098 2177292 2177292 2350196 2350088 2657915 2739185 2177101 2656335 5980514 2177267 2307682 2722281 2661263 2195802 2171244 2721624 2173653 2173639 2301583
%post EPG-5Lb 2177114 11773973 5809991 2177091 2177121 2177070 2177322 2331324 11845174 2330646 11845216 11843465 2369028 2655318 2177436 2737655 2324038 2737438 2737118 2737233 11846406 2426225 16183312 2317731 2653254 16594356 2652456 2736635 2322823 2269521 2264232 2195970 2195894 2195862 2177258
%post EPG-5Lc 2173288 2661319 11696076 2649768 2650704 12105789 2177472 18105578 2592853 2177433 2738132 2737149 5811845 11821713 2173702 2177012 2176966
%post EPG-6Ra 2988697 2988597 3416288 3416293 2993276 3127690 3416455 7926564 2903302
%post EPG-6Rb 6941440 2166014 2979838 2980036 3136977 2981420 2167210
%post EPG-6La
%post EPG-6Lb
%post PEG-5R 2662411 11803042 12334250 11803339 5812017 2658327 2195771 11825904 2867818 2658336 2177197 14005281 2722087 1981960 2177352 5811595 2738732 1949051 2744409 2635914 2807609 2426223 2461935 2636046 2195995
%post PEG-5L 2650462 2661244 2661610 2654261 2658468 2196063 2740012 2737270 2172787 2176995 2173691 6323697 2644987 4709062 2172148 2173426 2653825 11858018 2172507 2173358 6317067 6320123 6321079 6321176 12049697 6323321
%post PEG-6R 2745039 2745036
%post PEG-6L
%post D7-5R4La
%post D7-5R4Lb 3173447 3123949
%post D7-6R3La 2168982 2980467 2169206 3122891 7978532 7978528 3266027 3109801 3140796 3172926 7931759 7953653 2980784 7977745 7954701 2375250 3126831 7750109 2979081 2979730 3122566 2988730 2979754 3161681 2169046 7954402 2168897 2169028 2979809 3127317 2899953 2900250 2978932 3106306 2980762
%post D7-6R3Lb 7930554 2167866 2980785 2979140 7930496 3242395 2981255 2979708 7930729 2980317 2980292 2981410 2421743 2424060 3127635 7925463 3127622 3112877 2981450 7926789 8054135 3240756 2982662 3125474 2423970 2169233 2982635 2981665 2981611 2981548 2900322 2423941 2423909 2981485 2422284 2168682 2168622 2168581 2167757 2167672 2165736 2167797 2982736 2988809 2422307 2424187 2988569 2422198 2422307 3239665 21486090 2981088 2165921 2168663 7956903 2423967 3244107 2165761 2979611 3122356
%post D7-7R2L
%post D7-2R7L
%post D7-1R9R8L
%post GE-r1
%post NO-LAL-G 2530948 2531104 2532676 2532874 2533766 2536319 3322943 2533860 3354106 2533122 2533127 3301379 2532773 3362103 2535858 3323149 2753328 3334918 2534144 2534141 8366311 3323114 3352707 2536778 2534186 2532730 2531066 2532644 2534132 2531097 2530889 8309232 2753787 3323047 2532633 2533840 2533857 3334041 2533974 2533996 2534199 2533846 8366294 2532853 2532837 2536711 2532695 2536683 3360334 2534334 2533751 3363276 2536773 2532948 2536143 3322985 2531078 2531011 7262597 3302628
%post Ra 2743811
%post Rb 2426125
%post Rc 11748976 2173029
%post Rd
%post Re
%post Rf 2720399
%post Rg