%neuron PEN2-6La
#User ktj21
#Jayaraman lab
0 0.001 0.442 -1 27080566
1 17.81941 0.442 0 2206703
2 23.83693 0.442 1 2424373
3 2.45013 0.42225 2 2567354
4 0.9752 0.3952 3 2323368
5 1.42362 0.37770000000000004 4 2567389
6 1.77749 0.3556 5 2664635
7 0.30618 0.3417 6 2664665
8 0.14235 0.34275 6 2664662
9 0.21025 0.36605 5 2567399
10 0.14942 0.36355 9 2567400
11 0.3324 0.36024999999999996 10 2664852
12 0.91219 0.3564 10 9993928
13 1.27429 0.35605 9 2664749
14 0.9764 0.34125 13 2664756
15 0.13001 0.33415 14 2664766
16 0.14556 0.33405 14 10140386
17 0.07162 0.347 13 2664774
18 0.61299 0.34255 17 2901604
19 0.32105 0.34445 17 2664815
20 0.67968 0.33804999999999996 19 2664819
21 0.49229 0.33065 20 2901619
22 1.07995 0.3356 19 10113657
23 1.32915 0.37835 4 2665306
24 1.5514 0.391 3 2567418
25 1.69939 0.3677 24 2567435
26 0.52782 0.3524 25 2567443
27 0.88415 0.34314999999999996 26 2567446
28 2.48211 0.32245 27 10170314
29 0.31592 0.30569999999999997 28 2568234
30 0.59603 0.30055 29 2568265
31 0.92081 0.2922 30 10466102
32 0.09749 0.2867 31 10465811
33 0.45874 0.2838 32 2298980
34 0.52926 0.27864999999999995 33 10029741
35 0.47896 0.2837 32 2568296
36 0.2672 0.2798 35 2568297
37 2.26617 0.26725 36 2569231
38 0.33914 0.25455 37 2569240
39 0.1234 0.2524 38 2569245
40 0.41424 0.24995 39 2569250
41 1.17533 0.2429 40 2569278
42 0.04119 0.2375 41 2569282
43 0.76507 0.23405 42 2569308
44 0.38248 0.22925 43 2569311
45 0.14996 0.23020000000000002 43 2569317
46 0.04051 0.23715 42 2569286
47 0.50269 0.23485 46 2569288
48 0.17695 0.23195 47 5829092
49 0.04119 0.23104999999999998 48 2569292
50 0.04181 0.23070000000000002 49 2569293
51 1.0629 0.2283 47 2299948
52 0.55068 0.2217 51 2855494
53 1.4503 0.2417 40 3312685
54 0.46121 0.23335 53 2569272
55 1.7051 0.24425000000000002 39 10114847
56 1.17059 0.27254999999999996 36 2568300
57 0.12536 0.26605 56 2568303
58 0.96258 0.26080000000000003 57 2568773
59 1.18015 0.2508 58 10880550
60 0.2578 0.24425000000000002 59 2568792
61 0.16576 0.24465 59 10880562
62 0.35402 0.26495 56 9878376
63 0.85296 0.29259999999999997 30 2568270
64 1.43541 0.28054999999999997 63 2569363
65 0.79823 0.26915 64 9901348
66 0.81032 0.2613 65 2570186
67 0.53743 0.2549 66 9901257
68 0.47586 0.2629 65 10114901
69 0.60664 0.2701 64 2569379
70 1.09042 0.26185 69 2569387
71 0.27619 0.2657 69 2358183
72 0.78473 0.26054999999999995 71 2569420
73 3.32539 0.2714 63 2575654
74 2.85067 0.24225000000000002 73 2576100
75 0.42537 0.22794999999999999 74 2576615
76 0.47161 0.22425 75 2576643
77 1.63005 0.216 76 5811842
78 0.31051 0.20855 77 2577110
79 0.4544 0.20575 78 2577115
80 0.46989 0.2024 79 2577116
81 0.2162 0.1999 80 2577131
82 1.0249 0.19555 81 2577143
83 0.75709 0.1895 82 2577147
84 0.28774 0.18605 83 2304991
85 0.34947 0.184 84 2665811
86 0.29651 0.18195 85 2665816
87 0.86232 0.17830000000000001 86 2665818
88 0.33529 0.17995 86 2665819
89 0.7638 0.1845 83 6044308
90 0.04179 0.1819 89 2665710
91 0.57016 0.18 90 2665715
92 1.39166 0.174 91 2665735
93 0.30857 0.1689 92 2665833
94 0.73914 0.16765000000000002 92 10032260
95 1.30176 0.1619 94 5821193
96 0.13276 0.15794999999999998 95 10134228
97 0.39848 0.1565 96 10134242
98 0.37105 0.16444999999999999 94 10032594
99 0.74144 0.16135 98 10032627
100 0.67219 0.1575 99 10135459
101 0.12987 0.15894999999999998 99 10032642
102 0.84269 0.15635 101 10137108
103 0.17655 0.15365 102 10137167
104 0.56573 0.15265 102 10137199
105 0.43276 0.153 102 10137492
106 0.95468 0.16075 98 10032784
107 0.29761 0.1573 106 10032788
108 0.40458 0.15545 107 10033004
109 0.65958 0.1548 107 10032874
110 0.62368 0.1763 91 2665728
111 0.76208 0.1794 90 2665762
112 0.70731 0.17485 111 2665766
113 0.32366 0.17175 112 2665769
114 0.24118 0.172 112 2665829
115 0.11331 0.17665 111 2665773
116 0.71301 0.18964999999999999 82 2577157
117 0.04239 0.18714999999999998 116 2577160
118 0.42956 0.1976 81 2577138
119 1.60337 0.20165 78 2577112
120 1.31939 0.19145 119 2577661
121 0.77422 0.1845 120 2664455
122 1.03243 0.18364999999999998 120 2577705
123 1.12811 0.1921 119 9996224
124 0.08078 0.188 123 9996233
125 0.06344 0.18805 123 9996241
126 0.5541 0.2274 74 2576120
127 0.8664 0.2508 73 2575707
128 0.49549 0.24459999999999998 127 2577166
129 0.20508 0.2415 128 9899319
130 0.16693 0.23985 129 2577209
131 0.44815 0.23720000000000002 130 2577208
132 0.62586 0.23265000000000002 131 2577204
133 0.55217 0.22775 132 2577199
134 1.05378 0.2213 133 2577449
135 0.22863 0.2162 134 2301392
136 0.30848 0.22425 133 9899240
137 0.35375 0.22160000000000002 136 2577562
138 0.30349 0.2218 136 2577561
139 0.53038 0.2278 132 2577446
140 0.38486 0.2284 132 2577217
141 0.95515 0.223 140 2357944
142 0.09132 0.2188 141 2577239
143 0.08219 0.23875000000000002 130 2577222
144 0.5187 0.23620000000000002 143 2577230
145 0.83314 0.2388 128 9900928
146 0.4938 0.2331 145 9900930
147 0.05609 0.23075 146 2534920
148 0.06223 0.23025 147 10136244
149 0.26058 0.22895 148 4142106
150 0.12102 0.2274 149 4142109
151 0.09849 0.22749999999999998 149 10136293
152 0.14282 0.2294 148 10136276
153 0.17883 0.23025 146 10136187
154 0.1834 0.2344 145 10136162
155 1.42995 0.29605000000000004 29 10031276
156 2.41163 0.32284999999999997 27 2664683
157 0.63609 0.30469999999999997 156 2664710
158 0.29875 0.29945 157 2664712
159 0.04709 0.2975 158 2664713
160 0.17186 0.29625 159 2664862
161 1.56 0.28705 160 2664863
162 0.27793 0.27735 161 2664872
163 0.04827 0.27564999999999995 162 2664877
164 0.5098 0.27285 163 2664909
165 0.14275 0.27805 161 10900825
166 0.1366 0.27659999999999996 165 10343788
167 0.23422 0.2747 166 5823412
168 0.04793 0.27325 167 10988144
169 0.86186 0.26875000000000004 168 10988520
170 0.48267 0.2622 169 10988649
171 0.11819 0.26395 169 10988554
172 1.12925 0.26745 168 10988244
173 0.28528 0.29375 160 9901858
174 0.31214 0.29055 173 4708073
175 0.29521 0.2873 174 10113783
176 0.43436 0.2954 158 2664726
177 0.52668 0.29815 157 10113962
178 0.30629 0.29355 177 10114271
179 0.37921 0.28985 178 10114408
180 0.43387 0.29285 177 10113964
181 0.08198 0.29005000000000003 180 10114220
182 1.10694 0.28469999999999995 180 10114674
183 0.17762 0.29425 177 10114231
184 0.62152 0.30475 156 2664697
185 1.24441 0.3409 26 9818271
186 0.91482 0.3273 185 2567460
187 2.18311 0.3091 186 2568600
188 0.50224 0.29374999999999996 187 2568618
189 1.42628 0.28885 187 9882995
190 0.11272 0.28065 189 2835878
191 0.31752 0.27845 190 2345345
192 0.27699 0.2754 191 10894712
193 0.95686 0.26925 192 2854918
194 0.45849 0.2717 192 10894716
195 0.45029 0.27890000000000004 189 9883003
196 1.22752 0.2705 195 2455617
197 0.46884 0.26215 196 2570258
198 0.42232 0.2579 197 2570291
199 0.24284 0.25475000000000003 198 2570309
200 1.24142 0.248 199 2276075
201 0.08927 0.242 200 2570326
202 0.86399 0.23785 201 2570343
203 0.98456 0.25529999999999997 197 9881989
204 0.62179 0.24785 203 10031659
205 0.61105 0.27349999999999997 195 2854833
206 0.47129 0.2681 205 2854837
207 0.48567 0.26344999999999996 206 2854865
208 0.4733 0.26349999999999996 206 10920336
209 1.56353 0.31255 186 2567479
210 0.22424 0.30215000000000003 209 2567480
211 0.43387 0.2985 210 2567483
212 2.15499 0.28474999999999995 211 9855810
213 0.5796 0.27049999999999996 212 2570635
214 0.56712 0.27054999999999996 212 2568929
215 1.29954 0.2615 214 2570193
216 0.80696 0.25155 215 2570201
217 0.41998 0.26565 214 9855397
218 0.63062 0.2606 217 2568930
219 0.76766 0.25405 218 2568934
220 0.31785 0.2561 218 2568912
221 0.93746 0.25035 220 10880328
222 0.59342 0.24345 221 2576187
223 0.40971 0.239 222 2576289
224 1.30205 0.23175 223 2576359
225 0.58802 0.22394999999999998 224 2576386
226 0.05142 0.22135 225 2576387
227 0.32785 0.2358 223 2576312
228 0.29495 0.24475000000000002 221 2576206
229 0.87331 0.2396 228 2576227
230 0.39045 0.23415000000000002 229 2576231
231 1.53974 0.2262 230 2664997
232 0.19754 0.21915 231 2665038
233 0.96149 0.2147 232 2665052
234 0.19164 0.21025 233 2665057
235 0.20517 0.2102 233 10011641
236 0.35942 0.21700000000000003 232 2665069
237 0.05903 0.21535 236 2665074
238 1.37519 0.20995000000000003 237 2665075
239 0.68814 0.2023 238 2665092
240 0.62603 0.19765 239 2665333
241 0.10092 0.19515 240 2665336
242 0.40308 0.20335 238 10922236
243 0.04157 0.21495 237 2665111
244 0.57356 0.2126 243 2835886
245 0.04509 0.21025 244 2665128
246 0.15324 0.20950000000000002 245 2665131
247 0.07035 0.20865 246 2665132
248 0.50892 0.20705 246 2665139
249 0.8644 0.2072 244 2855471
250 0.11156 0.2036 249 2855474
251 0.43673 0.20245 249 2855481
252 0.72413 0.21710000000000002 231 2664991
253 0.04382 0.2323 230 2665155
254 1.95879 0.2242 253 2665170
255 0.34336 0.215 254 2665173
256 0.32371 0.21245 255 2665610
257 0.19965 0.21555 254 2665181
258 0.12424 0.2143 257 2665215
259 0.72622 0.21105000000000002 258 2665227
260 0.7543 0.22899999999999998 253 2665273
261 0.30346 0.22465 260 2665279
262 1.21434 0.22715000000000002 253 2665242
263 1.01333 0.25 220 9998372
264 0.3845 0.26175000000000004 217 2568943
265 0.5193 0.25745 264 2568949
266 2.87808 0.24235 265 10275788
267 0.04142 0.22949999999999998 266 2568973
268 0.12597 0.2288 267 2568978
269 0.60522 0.22585 268 2568993
270 0.04669 0.2232 269 2568994
271 0.05521 0.22275 270 2568995
272 0.04036 0.22235 271 2568996
273 0.04345 0.22205 272 2569004
274 0.14897 0.2213 273 2569006
275 0.46554 0.21885 274 2569010
276 0.72903 0.2142 275 2569016
277 0.10356 0.21100000000000002 276 2569017
278 1.12223 0.21810000000000002 271 2568999
279 0.28333 0.21265 278 2570189
280 0.99261 0.21000000000000002 278 10029269
281 0.05323 0.2061 280 10029271
282 0.74357 0.22044999999999998 269 9854254
283 0.13817 0.21695 282 2330634
284 0.04309 0.2173 282 10029595
285 1.25596 0.22325 268 2575805
286 0.31877 0.21695 285 2575824
287 0.45256 0.2529 265 9854653
288 0.47361 0.24870000000000003 287 9854655
289 0.05225 0.24635 288 6004573
290 0.33482 0.2446 289 10029211
291 0.08096 0.2462 288 9854670
292 0.0862 0.25045 287 9854678
293 0.3956 0.29395 211 2461923
294 0.52937 0.28895000000000004 293 10122176
295 1.45284 0.29545 209 2567492
296 0.97863 0.2824 295 2567500
297 0.28406 0.27585 296 2567506
298 1.10393 0.26895 297 2569506
299 0.67524 0.26025 298 2359623
300 0.26164 0.2558 299 2569524
301 2.31196 0.24430000000000002 300 2569571
302 0.08933 0.2336 301 2569575
303 0.1193 0.2327 302 2359710
304 0.22837 0.23125 303 2569592
305 1.05765 0.226 304 2569593
306 0.47023 0.21985 305 2569603
307 0.28425 0.22055000000000002 305 2569626
308 0.28959 0.2183 307 2569642
309 0.7323 0.21434999999999998 308 2569644
310 0.46294 0.2098 309 2575552
311 0.2456 0.2106 309 9840282
312 0.55223 0.21505000000000002 308 2569669
313 0.11119 0.21250000000000002 312 2569674
314 0.05987 0.21185 313 2304504
315 0.08195 0.2113 314 2569679
316 0.317 0.2098 315 2367486
317 0.60188 0.2064 316 2569717
318 1.45439 0.19905 317 2664413
319 1.51398 0.19885 317 9838828
320 0.96262 0.19025 319 2664366
321 0.85778 0.18425 320 2353632
322 0.74877 0.17915 321 9838521
323 1.48655 0.17235 322 2665497
324 0.08065 0.16770000000000002 323 2665499
325 0.21055 0.1673 323 5820152
326 0.52618 0.17520000000000002 322 2448088
327 0.04483 0.17345 326 9838577
328 0.2682 0.18614999999999998 320 9838712
329 0.54142 0.18355 328 6326514
330 0.22963 0.19269999999999998 319 2353529
331 1.01873 0.20829999999999999 313 2334432
332 0.0428 0.20434999999999998 331 10031798
333 1.32365 0.20800000000000002 312 2816004
334 0.67 0.2007 333 2854634
335 0.24828 0.2293 304 2569610
336 0.56695 0.22594999999999998 335 2569619
337 0.95468 0.22925 302 2854678
338 0.72277 0.2224 337 2854692
339 0.77452 0.25980000000000003 298 2317475
340 1.75212 0.26585 297 2866881
341 0.04062 0.2571 340 2567519
342 2.15005 0.2472 341 11174208
343 3.03206 0.2252 342 2567553
344 0.60781 0.2106 343 2369593
345 0.08741 0.20800000000000002 344 2567558
346 1.28179 0.20305 345 2568043
347 0.70228 0.19595 346 2304666
348 0.24078 0.19269999999999998 347 2353982
349 0.33596 0.19074999999999998 348 2568081
350 1.23604 0.1856 349 5768513
351 0.71134 0.17935 350 5768537
352 1.20592 0.1735 351 5768554
353 0.8072 0.16755 352 2865880
354 0.20792 0.16460000000000002 353 5768574
355 0.82429 0.179 350 5768519
356 0.07011 0.1762 355 2744582
357 0.045 0.17585 356 5768521
358 0.33513 0.1754 355 2367296
359 0.09569 0.1741 358 5768527
360 0.3416 0.1972 346 6324940
361 0.36228 0.19475 360 9788871
362 1.12051 0.18975 361 9788957
363 0.24904 0.19265 361 9788885
364 0.15797 0.2071 345 2567564
365 0.61956 0.20425 364 2567569
366 0.04062 0.20185 365 2567570
367 0.1342 0.2012 366 2567573
368 1.01857 0.19715 367 2567574
369 0.1583 0.19305 368 2567576
370 0.39658 0.1912 369 2568804
371 0.0499 0.1897 370 2268394
372 1.04663 0.1861 371 2568821
373 0.22117 0.182 372 2568824
374 0.08582 0.181 373 2568825
375 0.81203 0.1782 374 2568831
376 0.18033 0.17515 375 2568833
377 1.36641 0.17845 372 2606767
378 0.52224 0.1726 377 2605732
379 1.54696 0.16660000000000003 378 2605725
380 0.71538 0.1602 379 2605696
381 2.52939 0.1517 380 2457601
382 0.30499 0.14450000000000002 381 2605611
383 1.02823 0.1555 380 2342789
384 0.54832 0.15139999999999998 383 2606648
385 0.19808 0.1495 384 2606650
386 0.08384 0.1488 385 2606651
387 0.22436 0.16155 379 2315155
388 0.11413 0.1606 387 2605796
389 0.04743 0.16015000000000001 388 2605812
390 0.05156 0.15985 389 2605817
391 0.41022 0.15860000000000002 390 2605900
392 0.24247 0.15685 391 2605908
393 0.08866 0.156 392 2605911
394 0.07899 0.15555 393 2605916
395 0.13345 0.15494999999999998 394 2605917
396 0.92827 0.1522 395 2605939
397 3.1315 0.15195 389 2606285
398 0.3321 0.1431 397 2606290
399 0.73776 0.15889999999999999 387 10974180
400 0.67882 0.15510000000000002 399 2835957
401 0.10957 0.15305 400 2307863
402 0.62696 0.16920000000000002 378 9801492
403 0.1608 0.16695 402 9801498
404 1.87606 0.16870000000000002 377 2854621
405 0.89584 0.17154999999999998 377 10122025
406 0.71183 0.18755 370 2610301
407 1.30966 0.18105 406 2610313
408 0.13726 0.17645 407 2664423
409 0.04195 0.1759 408 2664424
410 0.13591 0.17535 409 2664433
411 1.31011 0.17104999999999998 410 2664445
412 0.05005 0.17475000000000002 410 17246039
413 0.1327 0.17420000000000002 412 2664452
414 0.19522 0.1763 407 2664466
415 0.64084 0.17375000000000002 414 2664487
416 1.11444 0.16855 415 2664488
417 0.10817 0.165 416 2606812
418 0.06136 0.16455 417 2664525
419 1.05446 0.16144999999999998 418 2664540
420 0.12244 0.16405 418 10001782
421 1.06709 0.16175 417 2664542
422 0.34374 0.16435 416 2664493
423 1.4843 0.15935 422 2664590
424 0.26384 0.16265 422 10115932
425 1.18581 0.1587 424 10116523
426 0.67284 0.1537 425 5815913
427 1.15183 0.14905000000000002 426 10116654
428 0.83189 0.14415 427 10132387
429 0.3318 0.14135 428 10132428
430 0.09565 0.14035 429 10132487
431 0.18859 0.14015 429 10132497
432 0.17195 0.1417 428 10132460
433 0.24565 0.1456 427 10116667
434 0.23672 0.1444 433 10117295
435 0.88687 0.1417 434 11174206
436 0.80065 0.14190000000000003 434 5989927
437 0.16746 0.1396 436 10981113
438 0.74136 0.1375 437 10981126
439 0.52273 0.13465 438 10982744
440 0.33088 0.1328 439 10982764
441 0.55336 0.13795 437 10981612
442 0.6689 0.1352 441 10982627
443 0.21433 0.1362 441 10982684
444 1.03222 0.1528 425 2337567
445 0.22384 0.1613 424 10115988
446 1.43629 0.15685 445 10116151
447 0.14115 0.1603 445 10116004
448 0.76931 0.16955 415 2665826
449 1.27915 0.1637 448 2665883
450 0.67269 0.1583 449 2665907
451 0.53523 0.15505 450 2665906
452 0.24445 0.15585 450 2665910
453 1.70754 0.15560000000000002 449 2665894
454 0.51243 0.1498 453 2665902
455 0.17745 0.1506 453 9891007
456 0.42306 0.14905000000000002 455 2665913
457 1.30901 0.14484999999999998 456 2665916
458 0.29512 0.14100000000000001 457 2665924
459 0.04805 0.14789999999999998 456 2665925
460 0.41867 0.14675 459 2665931
461 0.55427 0.14434999999999998 460 2665946
462 0.78422 0.17335 414 9906239
463 0.34821 0.16995 462 2664474
464 1.71707 0.16405 463 2854545
465 0.22347 0.16825 463 9906251
466 0.15583 0.1705 462 9992857
467 1.06117 0.18180000000000002 406 2569490
468 1.62195 0.1872 369 2664055
469 3.23823 0.18325 368 2345084
470 0.08243 0.17265 469 10115081
471 0.15677 0.20015 367 2730214
472 0.12205 0.1992 471 2730211
473 0.57518 0.19675 472 2739063
474 0.11716 0.1943 473 2567586
475 0.73673 0.19940000000000002 365 9996628
476 0.94861 0.20485 344 6319899
477 0.47646 0.1997 476 10986176
478 1.24422 0.20825 343 2353564
479 0.24058 0.20274999999999999 478 10986300
480 0.08858 0.2033 478 10986334
481 0.82387 0.32785 185 10122927
482 0.89801 0.34995 25 10122361
483 0.4705 0.34099999999999997 482 10122416
484 0.78162 0.3331 483 10122443
485 0.06652 0.3436 482 10122375
486 3.87619 0.41164999999999996 2 2424444
487 2.24191 0.3658 486 2424470
488 3.50505 0.32875 487 2424543
489 0.04566 0.30694999999999995 488 2424545
490 1.57588 0.29795 489 2567598
491 0.6487 0.28575 490 2567601
492 0.44546 0.28 491 2568389
493 1.80487 0.27985000000000004 490 1777244
494 4.34553 0.25065000000000004 493 2567633
495 1.28919 0.22555 494 2567643
496 0.23691 0.21939999999999998 495 2567646
497 0.18103 0.21775 496 2567647
498 0.80763 0.21395 497 2567653
499 0.50813 0.20900000000000002 498 2567662
500 1.58029 0.20145000000000002 499 2567674
501 0.16976 0.19519999999999998 500 2567680
502 1.10903 0.19085 501 2816125
503 0.38902 0.18585 502 2816120
504 0.24343 0.1838 503 2567693
505 1.51786 0.17830000000000001 504 2567705
506 0.08691 0.1733 505 2567710
507 0.16845 0.1725 506 2816110
508 1.15888 0.16865 507 2567722
509 0.78515 0.1631 508 2576442
510 1.24532 0.15755 509 2576487
511 0.15354 0.1538 510 2576492
512 1.27584 0.15015 511 2576550
513 0.78865 0.14500000000000002 512 2576579
514 0.06652 0.1429 513 2576582
515 0.25247 0.14250000000000002 513 2576599
516 0.35304 0.1819 504 2567696
517 0.82265 0.19295 500 2272223
518 0.23431 0.18935 517 2568027
519 2.76282 0.20685 497 2814687
520 0.68693 0.19435000000000002 519 2568417
521 0.17356 0.19140000000000001 520 2568423
522 0.07473 0.19055 521 2568424
523 1.12571 0.1866 522 2568439
524 0.30197 0.18195 523 2568450
525 0.04211 0.18085 524 2568451
526 0.08926 0.1804 525 2568454
527 0.08222 0.17985 526 2568457
528 0.08238 0.17935 527 2568460
529 1.10221 0.17575000000000002 528 2568462
530 0.5454 0.17075 529 2569029
531 1.66207 0.1644 530 2814594
532 0.42147 0.15860000000000002 531 2576834
533 0.22574 0.15689999999999998 532 2576844
534 0.46611 0.15505 533 2449190
535 0.05842 0.15365 534 2576866
536 0.32493 0.15265 535 2576886
537 1.1548 0.14889999999999998 536 2576889
538 3.68524 0.1376 537 2577330
539 0.47664 0.1282 538 2577343
540 0.65584 0.12585000000000002 539 2577354
541 0.44725 0.1236 540 2577360
542 0.27343 0.12215000000000001 541 2577374
543 1.13176 0.11945 542 2577388
544 0.57769 0.11624999999999999 543 2577393
545 0.79762 0.1201 542 2577366
546 0.55597 0.11755 545 2577367
547 0.75402 0.11510000000000001 546 2657819
548 0.27452 0.1132 547 2657842
549 0.53631 0.1155 546 2657814
550 0.81 0.12555 539 2577349
551 0.49561 0.1229 550 2577350
552 0.27819 0.12135 551 2657851
553 0.04142 0.12075 552 2657852
554 0.45012 0.12104999999999999 551 10010766
555 0.13947 0.15145 536 2577476
556 0.42849 0.15000000000000002 555 10011241
557 0.27222 0.1482 556 2657805
558 0.59957 0.1496 555 10976392
559 0.80606 0.1461 558 2577458
560 0.7656 0.1423 559 2577459
561 0.26735 0.13985 560 2577461
562 0.7164 0.13755 561 2657684
563 0.87707 0.13845000000000002 560 2854810
564 1.64911 0.14024999999999999 559 9888339
565 0.67668 0.1349 564 1984328
566 1.70626 0.12974999999999998 565 5937708
567 0.17836 0.12575 566 2657717
568 0.07798 0.1362 564 2577522
569 0.43038 0.13505 568 2577533
570 0.17866 0.13369999999999999 569 2577536
571 0.33118 0.1326 570 10727694
572 0.10822 0.13165 571 2577540
573 0.04036 0.1313 572 2577541
574 0.7367 0.12965 573 1984380
575 0.32118 0.12745 574 2657725
576 0.23103 0.1307 573 2577547
577 1.18548 0.12775 576 2657599
578 0.73639 0.1238 577 1989585
579 0.67356 0.121 578 2657615
580 0.39564 0.11895 579 2657659
581 0.51331 0.11875 579 2657666
582 0.0623 0.12514999999999998 577 2657630
583 0.32906 0.12435 582 2578022
584 0.2124 0.12329999999999999 583 2657639
585 0.37346 0.12425 582 2657646
586 0.56975 0.14665 558 2577471
587 0.26121 0.1446 586 2657738
588 0.74932 0.1434 586 2657754
589 0.62508 0.14015 588 2657759
590 0.05618 0.1386 589 2657760
591 0.98866 0.13625 590 2854826
592 0.14982 0.13365 591 2854829
593 0.23084 0.1382 589 9912943
594 1.14499 0.13895000000000002 588 2657779
595 0.61713 0.15805000000000002 531 2854795
596 0.30036 0.15560000000000002 595 2854804
597 1.4718 0.1558 531 9992173
598 0.38705 0.17125 529 9797588
599 0.26453 0.17830000000000001 528 2568469
600 0.05225 0.1773 599 2568470
601 1.24027 0.1734 600 2568799
602 0.30136 0.17620000000000002 600 2568482
603 1.67224 0.17455 527 10984111
604 2.30678 0.16305 603 10985582
605 0.04957 0.15644999999999998 604 10985626
606 0.403 0.1683 603 10985108
607 0.61103 0.18875 521 2814651
608 0.7594 0.18425 607 2854693
609 0.0821 0.18155 608 2854694
610 0.04239 0.18114999999999998 609 2854695
611 0.04119 0.1809 610 2854696
612 0.98043 0.17795 610 2854705
613 1.05226 0.18335 607 10140282
614 0.79364 0.17754999999999999 613 2447972
615 0.47418 0.17365 614 5823362
616 0.06643 0.19645 519 2814692
617 0.33917 0.19505 616 2814696
618 0.51547 0.19215 617 2854712
619 0.82482 0.18765 618 2854716
620 0.92671 0.18735000000000002 618 2854730
621 0.4001 0.183 620 2854756
622 0.27525 0.1834 620 10903653
623 0.28748 0.18945 618 1753689
624 1.28213 0.21534999999999999 495 4708833
625 0.50277 0.30384999999999995 489 2567904
626 1.01865 0.2954 625 2568377
627 0.17934 0.3 625 2567920
628 1.27407 0.30005 488 2424558
629 0.47854 0.3472 487 2424483
630 1.08885 0.3372 629 2424484
631 0.66418 0.3262 630 2424507
632 0.55847 0.3188 631 2424535
633 0.18713 0.3144 632 2424537
634 0.77122 0.31755 631 2424528
635 1.55109 0.32094999999999996 630 9967311
636 1.20494 0.33645 629 2424500
637 4.39812 0.35214999999999996 486 2567738
638 1.48422 0.3143 637 2567789
639 0.67859 0.30179999999999996 638 2567798
640 0.15269 0.29715 639 2567807
641 0.28013 0.2948 640 2567815
642 0.29703 0.29164999999999996 641 2567817
643 0.5777 0.28695 642 2567821
644 1.14184 0.29015 640 2567809
645 0.39354 0.28195 644 2567804
646 0.10227 0.2794 645 2567806
647 2.39168 0.2681 645 2567850
648 0.23899 0.2552 647 2567853
649 0.90752 0.24995 648 2567854
650 0.41248 0.244 649 2567891
651 0.34599 0.24065 650 2567898
652 0.58907 0.2432 649 2816165
653 0.46079 0.2386 652 2816166
654 0.14344 0.236 653 2816167
655 0.13651 0.236 653 9990940
656 0.09856 0.24015 652 2816171
657 0.6765 0.251 648 2567859
658 0.11787 0.24735000000000001 657 2567864
659 0.05665 0.24655 658 2567865
660 1.4538 0.23995 659 2567866
661 0.66039 0.23085 660 2567872
662 1.2519 0.2231 661 2567874
663 0.09036 0.21775 662 2567875
664 1.02458 0.21345 663 2568354
665 0.46267 0.20779999999999998 664 2568357
666 0.10074 0.2057 665 2568359
667 0.17089 0.2167 663 2568839
668 0.14349 0.21545 667 2568841
669 0.48622 0.2162 662 2568847
670 0.2393 0.21339999999999998 669 2665347
671 0.50565 0.21055000000000001 670 2665360
672 0.37851 0.20725 671 2665362
673 0.40232 0.2044 672 2665372
674 0.23588 0.20500000000000002 672 2665396
675 0.16283 0.20800000000000002 671 2665403
676 0.11431 0.21205000000000002 670 2665409
677 0.73654 0.20885 676 2407313
678 0.19003 0.2054 677 2665446
679 0.33114 0.22675 661 2568845
680 0.26019 0.22435 679 2568850
681 0.75794 0.2203 680 2568854
682 0.29738 0.21615 681 2568857
683 1.17934 0.21055000000000001 682 6121631
684 0.55551 0.2041 683 9913223
685 0.17335 0.21434999999999998 682 2569473
686 0.58675 0.23115 660 10031704
687 0.53863 0.2439 659 2567879
688 1.25158 0.23615 687 9842618
689 0.24956 0.22975 688 2567940
690 1.29627 0.22349999999999998 689 2568397
691 1.18969 0.21375 690 9990463
692 0.32249 0.21705 690 2568405
693 0.72273 0.22575 689 2567950
694 0.06211 0.2226 693 2567951
695 0.0413 0.2222 694 2567952
696 0.05064 0.2218 695 2567953
697 1.16422 0.21705 696 2570081
698 0.2634 0.2115 697 2570370
699 2.20294 0.2026 698 2816151
700 0.83197 0.19185000000000002 699 2570421
701 0.28161 0.1881 700 2570426
702 1.34254 0.20755 697 9838113
703 0.12309 0.20215 702 9838118
704 0.04089 0.21234999999999998 697 10014614
705 0.30903 0.21105000000000002 704 2854931
706 0.83539 0.20679999999999998 705 2854999
707 0.8259 0.20074999999999998 706 2855000
708 0.19921 0.1971 707 2455649
709 0.53327 0.1946 708 2855056
710 0.16997 0.19219999999999998 709 2855073
711 1.09033 0.1941 707 10108608
712 0.21574 0.18965 711 10108611
713 0.10314 0.18855 712 2271854
714 0.31634 0.18714999999999998 713 10108631
715 0.17466 0.18835000000000002 712 10108649
716 0.35776 0.20245 706 2855523
717 0.18384 0.2005 716 2855529
718 0.11245 0.19940000000000002 717 2592799
719 0.48283 0.19735000000000003 718 2855598
720 0.28649 0.1947 719 2855617
721 0.30921 0.19265 720 2855652
722 0.61744 0.1916 720 2855675
723 0.39529 0.1882 722 2855692
724 0.55601 0.1877 722 2855684
725 0.22597 0.18515 724 2855702
726 0.29938 0.18345 725 2855718
727 0.97488 0.18275000000000002 724 10109498
728 0.63506 0.1976 717 9836474
729 0.96145 0.19215 728 10108719
730 0.72587 0.19295 728 10031313
731 0.08072 0.1902 730 10031360
732 0.09863 0.19014999999999999 730 5942276
733 0.09885 0.18945 732 10031369
734 1.37024 0.2049 705 10031401
735 0.42259 0.1984 734 5942353
736 0.04091 0.19674999999999998 735 10031608
737 0.72288 0.19735 734 10031426
738 0.15201 0.1943 737 10031433
739 0.39837 0.19345 737 10031440
740 0.79373 0.2185 696 2570091
741 0.24348 0.21445 740 2570095
742 0.17916 0.2128 741 2570101
743 0.15799 0.21155000000000002 742 2570113
744 0.78072 0.20805 743 2570115
745 0.37396 0.20375 744 2570117
746 1.76891 0.19624999999999998 745 2570663
747 0.04181 0.19 746 2570665
748 0.21958 0.20165 745 10031738
749 0.21477 0.21015 743 2570128
750 0.26791 0.2083 749 2570135
751 0.56122 0.20525 750 2570141
752 0.33316 0.202 751 2835963
753 0.71816 0.20065 751 6122336
754 0.08917 0.1978 753 10874452
755 1.2537 0.2175 694 2568572
756 0.42138 0.21100000000000002 755 2568577
757 1.85671 0.20575 755 2568594
758 1.2801 0.2178 693 10172723
759 0.60045 0.2389 687 2567886
760 0.17989 0.25549999999999995 647 5954034
761 0.08377 0.25429999999999997 760 9843833
762 2.24752 0.2727 644 2567843
763 0.50001 0.25905 762 5816463
764 0.045 0.25649999999999995 763 9911287
765 0.13812 0.32220000000000004 637 4709358
766 1.88633 0.31045 765 2567748
767 1.51776 0.2913 766 2567756
768 0.19893 0.2821 767 2567766
769 0.22032 0.27995000000000003 768 2816065
770 0.31276 0.2772 769 2567777
771 0.81575 0.2715 770 2569102
772 0.43314 0.2653 771 2569106
773 1.5425 0.25595 772 2569119
774 0.04111 0.24855 773 2816049
775 0.04604 0.24815 774 2569120
776 0.16246 0.2472 775 2569123
777 0.07867 0.24614999999999998 776 2569124
778 0.44961 0.2438 777 2569133
779 2.55291 0.2311 778 2569175
780 0.42775 0.21875 779 2569180
781 0.12475 0.21995 779 2569182
782 0.13059 0.21895 781 2569185
783 1.45263 0.2129 782 2569819
784 1.55701 0.2018 783 2569860
785 2.16195 0.189 784 9845153
786 0.14926 0.18135 785 2569918
787 0.86504 0.17909999999999998 785 10024937
788 0.70946 0.19375 784 2569872
789 0.04091 0.19115 788 2569874
790 0.0401 0.19090000000000001 789 2569875
791 0.70765 0.1887 789 2569976
792 0.34977 0.19014999999999999 788 9996176
793 2.76984 0.20815 782 2569218
794 0.0692 0.2415 778 2569142
795 0.18136 0.2404 794 2569151
796 1.5675 0.23299999999999998 795 2569167
797 1.10226 0.2349 795 2569153
798 0.50127 0.22815 797 2569157
799 0.15229 0.22544999999999998 798 2569967
800 1.08174 0.2258 797 10110135
801 0.68603 0.2187 800 10110195
802 0.609 0.21365 801 10110493
803 0.68964 0.20875 802 10110497
804 0.14561 0.20565 803 10110539
805 1.26026 0.2006 804 10110572
806 1.18688 0.1921 805 10110772
807 0.23634 0.1953 805 10110660
808 0.1143 0.2047 804 10110544
809 1.86385 0.1996 803 10111094
810 0.04012 0.19285000000000002 809 5959071
811 0.08344 0.19240000000000002 810 10111112
812 0.04884 0.19195 811 2640413
813 0.73217 0.18935000000000002 812 10112397
814 0.66352 0.1896 812 10111175
815 0.74913 0.1896 811 10111582
816 1.05339 0.1895 809 10112839
817 0.1254 0.2155 801 10110204
818 0.48136 0.2195 800 10110184
819 1.0572 0.24114999999999998 777 9848953
820 2.34454 0.23645 776 2855327
821 0.18443 0.22565 820 2855329
822 2.34858 0.2158 821 2855410
823 0.72569 0.20405 822 2855429
824 0.24279 0.20055 823 2855446
825 1.01088 0.19785 823 9878894
826 0.13104 0.2062 822 10466494
827 2.17407 0.2385 775 2855244
828 0.2492 0.2281 827 2855249
829 0.20221 0.22625 828 2855250
830 0.11689 0.2286 827 2855252
831 1.3681 0.22265000000000001 830 2855283
832 0.13638 0.22755 830 9910220
833 1.73517 0.24080000000000001 774 2855241
834 0.39702 0.2613 772 2074616
835 0.12789 0.25880000000000003 834 2992486
836 0.39944 0.26545 771 9849674
837 0.045 0.2633 836 9849675
838 0.11673 0.26295 836 9849998
839 0.0545 0.26215 838 9850004
840 0.37664 0.2737 770 2567785
841 6.22336 0.2543 767 2567976
842 0.51849 0.2234 841 2567977
843 1.12054 0.21695 842 2567978
844 0.27129 0.2116 843 2567984
845 0.26686 0.2096 844 2569787
846 0.77435 0.2077 844 10987489
847 0.13868 0.2043 846 10987513
848 0.46184 0.20315 846 2468948
849 0.04153 0.20135 848 10987590
850 1.04609 0.2087 843 2928389
851 0.31094 0.2037 850 2992483
852 0.34226 0.20355 850 2992495
853 0.81763 0.19940000000000002 852 2992496
854 0.47276 0.19490000000000002 853 2992497
855 0.23649 0.1925 854 2992500
856 0.08091 0.193 854 2992502
857 1.68314 0.1872 856 2992507
858 0.91862 0.17880000000000001 857 2992643
859 0.05054 0.17575000000000002 858 2992644
860 0.08777 0.17535 859 2992646
861 0.74892 0.17285 860 2992707
862 0.77546 0.16835 861 2992724
863 2.62918 0.15894999999999998 862 2992760
864 0.04062 0.1517 863 2992761
865 0.07695 0.17035 861 2992712
866 1.47339 0.17154999999999998 858 10023152
867 1.22347 0.16375 866 10023994
868 0.22376 0.16654999999999998 866 10023179
869 0.08179 0.1814 857 2992529
870 0.04257 0.181 869 2992538
871 0.63847 0.1791 869 2992550
872 0.45356 0.1912 856 2992799
873 0.04319 0.19635000000000002 853 2992498
874 0.72845 0.194 853 9853214
875 0.72734 0.1891 874 4324203
876 0.19445 0.19085000000000002 874 10024639
877 0.36739 0.201 852 2992788
878 0.06376 0.1995 877 2844426
879 0.22296 0.1985 878 2992810
880 3.1053 0.18745 879 2841314
881 0.83358 0.1747 880 1981905
882 0.21794 0.17154999999999998 881 2992892
883 0.98112 0.19429999999999997 879 10024191
884 0.55585 0.18905 883 10024386
885 0.26633 0.18635000000000002 884 10024389
886 0.07212 0.22105 842 2928394
887 1.24637 0.21595 886 2992457
888 0.39652 0.2096 887 2992461
889 0.23784 0.20725 888 2992462
890 0.88383 0.2032 889 10014303
891 0.65456 0.2057 888 2992480
892 0.31321 0.22425 841 2567988
893 1.43212 0.21739999999999998 892 2568002
894 0.76127 0.20895 893 2568005
895 0.7352 0.20345000000000002 894 9911204
896 0.04016 0.20065 895 2568628
897 0.2208 0.1997 896 9911087
898 0.04219 0.19874999999999998 897 2920295
899 0.18282 0.198 898 10025341
900 2.8016 0.1881 899 10027187
901 1.53811 0.17415 900 10113186
902 0.53625 0.16795 901 10113397
903 0.52148 0.1649 902 2863745
904 0.10038 0.16315 903 10113480
905 0.21944 0.1658 902 5943442
906 0.04177 0.16505 905 10113404
907 0.64028 0.16765000000000002 901 10113309
908 1.17948 0.1752 900 10123146
909 0.37836 0.17049999999999998 908 6121546
910 0.32755 0.16845 909 10132300
911 0.20108 0.17105 908 10123196
912 1.921 0.165 911 10123206
913 0.28044 0.15875 912 10128213
914 0.62579 0.15785 912 10128378
915 0.60523 0.15460000000000002 914 10128382
916 0.20229 0.15245 915 10128445
917 0.09598 0.15275 915 17622373
918 0.34074 0.1516 917 10128824
919 0.04045 0.1506 918 10129120
920 0.22926 0.14995 919 10129684
921 1.2195 0.1464 920 6288368
922 0.09466 0.14315 921 2855824
923 0.47654 0.14175 922 10973688
924 1.23445 0.14635 920 2580006
925 0.29425 0.1426 924 10130671
926 0.67892 0.14029999999999998 925 10131040
927 0.42295 0.13774999999999998 926 10131647
928 0.86254 0.13674999999999998 926 10131117
929 0.151 0.13445000000000001 928 5947314
930 0.74731 0.1325 929 10131515
931 0.23781 0.13425 928 2640842
932 0.07895 0.13355 931 10131180
933 0.9169 0.1538 914 6323110
934 0.08209 0.1512 933 10131781
935 0.12138 0.1701 911 10123222
936 0.43956 0.16845 935 10123235
937 0.15532 0.16675 936 10123237
938 0.48506 0.1649 937 10123244
939 0.64986 0.1617 938 10126042
940 0.27053 0.15915 939 10126062
941 0.4197 0.15875 939 10126718
942 0.90875 0.1552 941 10126803
943 0.61956 0.15125 942 10126828
944 0.18149 0.1492 943 5942624
945 0.86211 0.14755000000000001 943 5942623
946 0.13329 0.14505 945 10126934
947 0.37429 0.1566 941 10126746
948 0.54637 0.162 938 10125236
949 1.26481 0.1661 935 10127514
950 0.54265 0.161 949 2516347
951 1.14018 0.15645 950 2501780
952 0.12804 0.16215000000000002 949 10127560
953 0.21116 0.19665 899 10027039
954 0.48857 0.1972 897 10025375
955 0.84615 0.19265 954 10026980
956 1.18013 0.1915 954 2468865
957 0.09456 0.1872 956 10026735
958 1.84791 0.19415 896 2568642
959 0.27234 0.1869 958 2568634
960 0.51139 0.18435 959 2569099
961 1.15568 0.18235 959 6776750
962 0.1038 0.17835 961 10025100
963 1.58092 0.18275 958 2568644
964 0.10148 0.1774 963 2568645
965 0.04072 0.17695 964 2568646
966 0.42466 0.1755 965 2568651
967 0.45914 0.17285 966 2568655
968 0.32098 0.1767 963 2568660
969 0.19501 0.18714999999999998 958 9911098
970 0.11117 0.18614999999999998 969 10021399
971 2.36288 0.20325 893 2568495
972 0.39103 0.19335000000000002 971 2568499
973 0.0495 0.19185000000000002 972 2568500
974 0.42056 0.19030000000000002 973 2568510
975 1.30891 0.18465 974 9819731
976 0.70659 0.1782 975 2568534
977 1.264 0.17225000000000001 976 2568731
978 0.32305 0.16755 977 2568735
979 0.88342 0.17335 976 9887321
980 0.49756 0.16925 979 2568546
981 0.08797 0.16755 980 2568551
982 0.04607 0.16715000000000002 981 2568552
983 0.04267 0.1669 982 2568553
984 0.07835 0.16655 983 2568554
985 0.79431 0.16405 984 2568559
986 0.52142 0.16485 984 2568563
987 0.30442 0.1698 979 2568532
988 0.72143 0.16685 987 2575881
989 1.91923 0.15955 988 9880043
990 1.52867 0.15039999999999998 989 2657021
991 0.10213 0.14625 990 2657031
992 0.1943 0.1455 991 2657054
993 0.28415 0.14434999999999998 992 16245024
994 0.59253 0.14229999999999998 993 2657243
995 1.82475 0.1417 991 2657265
996 0.89189 0.14434999999999998 990 2657063
997 0.45554 0.1411 996 2657071
998 0.92386 0.14425 990 2657113
999 0.36048 0.15335 989 2657097
1000 1.73318 0.14805000000000001 999 2081531
1001 1.56619 0.14005 1000 2657201
1002 0.74192 0.13474999999999998 1001 2657231
1003 0.49204 0.14255 1000 9879360
1004 0.82155 0.1503 999 2657133
1005 1.15257 0.16160000000000002 988 10732522
1006 0.89715 0.156 1005 10986784
1007 0.70936 0.1565 1005 1733791
1008 1.04766 0.15189999999999998 1007 10986648
1009 0.96626 0.1774 975 2568669
1010 1.23133 0.17075 1009 2568723
1011 0.05587 0.17425000000000002 1009 2568674
1012 0.37593 0.17295 1011 2568675
1013 0.82395 0.1694 1012 2568743
1014 0.55985 0.1654 1013 2568753
1015 1.12729 0.16855 1012 2568687
1016 2.27939 0.15910000000000002 1015 2657274
1017 0.76954 0.1509 1016 2657286
1018 0.13362 0.1486 1017 2657413
1019 0.95968 0.15045 1016 2657275
1020 0.5126 0.14675 1019 2657313
1021 1.24285 0.14250000000000002 1020 2657325
1022 0.50469 0.13835 1021 2657556
1023 1.5299 0.13385 1022 2657586
1024 0.04308 0.1371 1022 2657569
1025 0.14389 0.1367 1024 2657572
1026 0.39061 0.1386 1021 2657548
1027 1.17365 0.1427 1020 2657354
1028 0.62255 0.13845000000000002 1027 2657367
1029 0.62891 0.1356 1028 2657370
1030 0.17312 0.1338 1029 2657530
1031 1.69549 0.13325 1028 9818925
1032 0.45351 0.12855 1031 9818931
1033 1.18603 0.12705 1031 9818954
1034 0.04091 0.13979999999999998 1027 2657361
1035 0.67586 0.14634999999999998 1019 2657436
1036 0.5763 0.14329999999999998 1035 2657441
1037 0.87221 0.13985 1036 2657503
1038 1.11872 0.1353 1037 2657538
1039 0.80492 0.136 1037 2657523
1040 0.95458 0.13965 1036 9912633
1041 0.30057 0.13674999999999998 1040 9912634
1042 0.08686 0.1359 1041 10023034
1043 0.04062 0.136 1041 10977623
1044 0.04001 0.13579999999999998 1043 10023038
1045 0.22998 0.1369 1040 10023008
1046 0.16521 0.1648 1015 2568695
1047 0.91454 0.1618 1046 2568701
1048 0.48976 0.15794999999999998 1047 2568707
1049 0.40019 0.15555 1048 2568711
1050 0.25576 0.15594999999999998 1048 2568714
1051 0.78109 0.16215000000000002 1046 9959596
1052 0.08391 0.15975 1051 9959602
1053 0.13327 0.15965000000000001 1051 9959608
1054 0.19918 0.1735 1011 5966501
1055 0.38156 0.18765 974 2568518
1056 2.12469 0.1851 972 2569084
1057 2.15217 0.2147 892 10987849
1058 0.77016 0.2953 766 2567755
1059 15.49917 0.442 1 2206761
1060 1.10834 0.442 1059 2206777
1061 0.3076 0.442 1060 2206780
1062 4.12671 0.442 1061 2405491
1063 90.47949 0.442 1062 2207249
1064 7.6766 0.3862 1063 2380393
1065 0.61676 0.3266 1064 2380406
1066 3.02633 0.3056 1065 2381935
1067 7.71782 0.253 1066 2387457
1068 0.88617 0.2142 1067 2914666
1069 1.33769 0.20584999999999998 1068 2387511
1070 2.18233 0.19345 1069 2387521
1071 0.61504 0.18405 1070 2392759
1072 0.75912 0.17970000000000003 1071 2392762
1073 1.77756 0.172 1072 2405026
1074 0.28417 0.1659 1073 2405031
1075 0.11902 0.16635 1073 2405035
1076 1.1436 0.17385 1072 2392991
1077 0.11205 0.17004999999999998 1076 2392995
1078 0.40177 0.16920000000000002 1076 2916766
1079 0.04181 0.1679 1078 2988420
1080 0.19034 0.16725 1079 2988421
1081 0.42781 0.16544999999999999 1080 2988422
1082 0.35722 0.1632 1081 2988526
1083 1.87643 0.15910000000000002 1081 3003316
1084 0.19232 0.16615 1080 2988433
1085 0.30861 0.1669 1079 2988428
1086 0.12939 0.16765000000000002 1078 7205631
1087 1.11724 0.1786 1071 2914636
1088 1.57012 0.17045 1087 2403070
1089 0.28405 0.165 1088 2403073
1090 0.63544 0.16245 1089 2403110
1091 0.42645 0.1595 1090 2403163
1092 1.02023 0.15560000000000002 1091 2403171
1093 0.88895 0.15065 1092 2404948
1094 0.63533 0.14685 1093 2405002
1095 1.66262 0.14435 1093 2404987
1096 0.4998 0.15165 1092 2916730
1097 0.37516 0.14945 1096 2403207
1098 0.52368 0.14905000000000002 1096 2916731
1099 0.73394 0.1459 1098 6680897
1100 1.43196 0.14075 1099 2988187
1101 0.47887 0.13629999999999998 1100 3003255
1102 0.05441 0.13724999999999998 1100 2988193
1103 0.71149 0.13555 1102 3003283
1104 2.44989 0.1318 1102 3003127
1105 0.05173 0.1264 1104 3003128
1106 0.34534 0.1256 1105 3003142
1107 0.85182 0.12459999999999999 1105 3003166
1108 0.5702 0.12175 1107 7233395
1109 0.1978 0.1225 1107 3003176
1110 0.38716 0.1257 1104 3003223
1111 0.46524 0.14655 1098 2916739
1112 1.66471 0.14150000000000001 1111 2988525
1113 1.47347 0.1419 1111 2988490
1114 0.72348 0.13679999999999998 1113 2988494
1115 0.08646 0.135 1114 2988495
1116 0.85084 0.13329999999999997 1114 2988504
1117 1.06907 0.12915 1116 3001468
1118 0.19371 0.131 1116 2988511
1119 0.20902 0.13795000000000002 1113 2988500
1120 0.17685 0.15785 1091 2403187
1121 0.05488 0.16055 1090 2403115
1122 0.19922 0.15985 1121 2403141
1123 0.63234 0.15760000000000002 1122 2403146
1124 0.45582 0.15805 1122 2403154
1125 0.59088 0.1588 1121 2403125
1126 0.33218 0.16325 1089 7258583
1127 0.43233 0.1646 1088 6681363
1128 1.09018 0.1604 1127 6845229
1129 0.7306 0.16135 1127 6845252
1130 0.36411 0.15835 1129 6845263
1131 1.513 0.15345 1130 6845358
1132 1.51183 0.15345 1130 6845391
1133 0.56624 0.1578 1129 6845298
1134 1.28976 0.17125 1087 2988459
1135 1.60663 0.1629 1134 2988481
1136 0.19903 0.16685 1134 2988466
1137 1.15378 0.18235 1070 2988327
1138 0.52606 0.19905 1069 2387548
1139 1.13676 0.19335 1138 2387553
1140 0.17713 0.1966 1138 2387601
1141 1.71146 0.20455 1068 3003385
1142 0.92487 0.1951 1141 3003727
1143 0.68942 0.1896 1142 3003765
1144 0.18388 0.18669999999999998 1143 3003776
1145 0.80118 0.1847 1143 3003825
1146 0.04942 0.19174999999999998 1142 3003745
1147 1.06283 0.19465 1141 3003912
1148 0.79423 0.21455 1067 2413290
1149 0.31762 0.2103 1148 2413291
1150 0.28409 0.20800000000000002 1149 2413302
1151 0.14089 0.21095 1148 2413295
1152 0.27801 0.20935 1151 2413299
1153 1.66861 0.20429999999999998 1151 2988286
1154 0.42617 0.2099 1148 7280363
1155 0.36806 0.28645 1066 2381941
1156 1.30379 0.2778 1155 2381949
1157 0.25594 0.26985000000000003 1156 2381960
1158 2.17391 0.2583 1157 2388597
1159 1.33831 0.26215 1157 2382045
1160 1.71472 0.26039999999999996 1157 3003964
1161 1.48384 0.24555 1160 3004222
1162 1.64596 0.23199999999999998 1161 3004535
1163 0.92167 0.22139999999999999 1162 3004558
1164 0.38338 0.22355 1162 6712003
1165 1.27178 0.23354999999999998 1161 3004298
1166 1.56391 0.22194999999999998 1165 3004428
1167 0.21093 0.21484999999999999 1166 3004438
1168 1.69201 0.20935 1166 6845044
1169 0.61642 0.2008 1168 6845055
1170 0.35667 0.19735 1169 6845121
1171 0.12964 0.19815 1169 6845138
1172 0.7139 0.19524999999999998 1171 6845156
1173 0.4753 0.19605 1171 6845168
1174 1.9312 0.1963 1168 6845088
1175 2.03248 0.24319999999999997 1160 3004572
1176 0.98865 0.2301 1175 3004573
1177 1.12168 0.2215 1176 7552271
1178 0.85556 0.21375 1177 7552845
1179 0.66866 0.208 1178 7552897
1180 0.19611 0.20479999999999998 1179 7552907
1181 0.08506 0.2052 1179 7553029
1182 0.4701 0.20875 1178 7553093
1183 0.58902 0.20484999999999998 1182 7616491
1184 0.08583 0.2024 1183 7616600
1185 0.40114 0.20124999999999998 1183 7616553
1186 0.57151 0.1978 1185 7617060
1187 0.2117 0.19505 1186 7617075
1188 0.35376 0.1931 1187 7617099
1189 0.12207 0.19390000000000002 1187 7617571
1190 0.34717 0.1923 1189 7648118
1191 0.36096 0.1899 1190 7648169
1192 0.22646 0.19035 1190 7648130
1193 0.55002 0.1878 1192 7648152
1194 0.33023 0.1885 1192 7648138
1195 0.09258 0.19319999999999998 1189 7617597
1196 0.06332 0.19265 1195 7617609
1197 1.06831 0.1893 1195 7650290
1198 0.12209 0.19535 1186 7617143
1199 0.18657 0.19915 1185 7616717
1200 0.36858 0.20565 1182 7553792
1201 0.40021 0.20285 1200 7648443
1202 0.49764 0.2025 1200 7553808
1203 0.19341 0.2 1202 7555344
1204 0.74925 0.19805 1202 7555452
1205 0.88541 0.21365 1177 7552307
1206 0.4311 0.22425 1176 7555638
1207 0.60002 0.22010000000000002 1206 7556165
1208 1.42381 0.2123 1207 3556386
1209 0.66033 0.20450000000000002 1208 7556335
1210 1.10331 0.19824999999999998 1209 7648492
1211 0.72649 0.19190000000000002 1210 7649340
1212 0.12581 0.19395 1210 7648506
1213 0.47448 0.19190000000000002 1212 7648558
1214 0.13022 0.19305 1212 7648528
1215 1.57052 0.19665 1209 7557116
1216 0.44455 0.1897 1215 7557146
1217 0.2126 0.19045 1215 7557206
1218 0.18797 0.1891 1217 7557215
1219 0.66199 0.18755 1217 7557279
1220 0.74811 0.183 1219 7557333
1221 0.50264 0.18375000000000002 1219 7557600
1222 0.15758 0.21710000000000002 1207 7556192
1223 0.28343 0.22135 1206 7555665
1224 0.7806 0.21715 1223 7555770
1225 0.28763 0.21300000000000002 1224 7555791
1226 1.79949 0.20535 1225 7556038
1227 0.80301 0.2089 1225 7620492
1228 0.53382 0.20400000000000001 1227 7620636
1229 1.68738 0.19619999999999999 1228 7621021
1230 0.7487 0.19945000000000002 1228 7620722
1231 0.15149 0.20535 1227 7620561
1232 0.60934 0.2118 1224 7618732
1233 1.86827 0.20274999999999999 1232 7619164
1234 0.04883 0.19585000000000002 1233 3570581
1235 0.47273 0.1941 1234 7619339
1236 0.0842 0.19219999999999998 1235 7619342
1237 1.71652 0.18685000000000002 1235 7619765
1238 0.7456 0.17885 1237 7619988
1239 0.50539 0.17959999999999998 1237 7619857
1240 0.75389 0.19345 1233 7619283
1241 1.24825 0.1868 1240 7662415
1242 1.43602 0.18619999999999998 1240 7662523
1243 0.60274 0.17959999999999998 1242 7662592
1244 1.36344 0.1773 1242 7662862
1245 0.41057 0.208 1232 7618752
1246 1.34305 0.21505000000000002 1223 7555732
1247 0.44044 0.23235 1175 7558458
1248 1.45743 0.22460000000000002 1247 7558753
1249 0.14038 0.21815 1248 7558819
1250 1.50201 0.21189999999999998 1249 7559902
1251 0.29562 0.2051 1250 7559926
1252 0.40112 0.20475 1250 7559948
1253 3.46486 0.1916 1252 7560370
1254 0.04064 0.17975000000000002 1253 7560374
1255 0.76134 0.17754999999999999 1253 7560426
1256 0.04045 0.20315 1252 7559966
1257 0.1413 0.21705 1249 7558910
1258 1.0274 0.2126 1257 7559682
1259 0.97338 0.2128 1257 7558983
1260 0.75451 0.20629999999999998 1259 7621886
1261 0.8641 0.20045 1260 7621913
1262 0.96429 0.1941 1261 7622258
1263 1.16194 0.19340000000000002 1261 7622022
1264 0.10377 0.20315 1260 7621889
1265 1.18074 0.2048 1259 7559085
1266 0.17837 0.19985 1265 7559096
1267 0.76823 0.1978 1265 7622657
1268 0.17343 0.1945 1267 7622665
1269 0.1234 0.19465 1267 7622691
1270 0.94972 0.22660000000000002 1247 7561130
1271 1.05122 0.21860000000000002 1270 7563178
1272 0.14466 0.21395 1271 7563197
1273 0.11274 0.21405000000000002 1271 7659057
1274 0.32591 0.22139999999999999 1270 7561150
1275 0.38426 0.2186 1274 7562107
1276 0.27776 0.21605 1275 7562142
1277 0.30995 0.2138 1276 7562279
1278 0.63206 0.21255000000000002 1276 7562211
1279 0.63739 0.21465 1275 7562522
1280 0.89884 0.21660000000000001 1274 7614304
1281 0.24117 0.2511 1160 3003989
1282 1.28651 0.26485000000000003 1156 2988246
1283 0.28608 0.25725 1282 2988405
1284 0.20903 0.2549 1283 2988407
1285 0.1826 0.25505 1283 2988412
1286 0.63781 0.25125 1285 3004590
1287 0.08972 0.2538 1285 2988417
1288 0.45709 0.25645 1282 2988263
1289 1.34265 0.27759999999999996 1155 2916425
1290 1.17482 0.31584999999999996 1065 2404767
1291 1.37992 0.32205 1064 2380435
1292 1.02348 0.30784999999999996 1291 2380436
1293 0.40568 0.29974999999999996 1292 2380441
1294 0.57614 0.29435 1293 2404036
1295 0.876 0.29269999999999996 1293 2404051
1296 1.1501 0.28195000000000003 1295 2988334
1297 0.45308 0.2737 1296 2988339
1298 1.06541 0.27065 1296 2988348
1299 0.74049 0.28405 1295 2404053
1300 0.70281 0.2766 1299 2404057
1301 1.21218 0.26705 1300 2404096
1302 0.09061 0.26065 1301 2404098
1303 1.81549 0.25185 1302 2404108
1304 0.29043 0.25885 1302 2404116
1305 1.95637 0.2521 1301 2916579
1306 1.4284 0.23695 1305 2988149
1307 0.04901 0.2306 1306 2988150
1308 0.10406 0.23035 1306 2988153
1309 1.31573 0.2246 1308 3010875
1310 3.0442 0.218 1308 3010854
1311 0.64671 0.24025000000000002 1305 2988316
1312 0.44916 0.2355 1311 2988310
1313 2.40677 0.2239 1312 3010675
1314 1.37087 0.22794999999999999 1312 7564910
1315 0.75145 0.21935 1314 7565059
1316 1.01941 0.2183 1314 7565026
1317 0.46072 0.23545 1311 3010538
1318 0.11638 0.2724 1300 2404124
1319 1.92472 0.26255 1318 2404433
1320 0.93209 0.24905 1319 6718114
1321 1.188 0.2479 1319 2404470
1322 1.50044 0.26449999999999996 1318 2988349
1323 1.21157 0.27405 1299 2988352
1324 0.97841 0.2632 1323 2988367
1325 0.52773 0.256 1324 2988371
1326 0.26369 0.25229999999999997 1325 2988372
1327 0.04614 0.2509 1326 2988373
1328 0.30052 0.2493 1327 3010522
1329 0.48335 0.2489 1326 2988377
1330 0.70996 0.2479 1326 3010528
1331 0.12744 0.2579 1324 2988380
1332 0.27988 0.26655 1323 2988358
1333 0.83496 0.2612 1332 2988362
1334 0.33345 0.2556 1333 3010537
1335 0.09737 0.2647 1332 2988366
1336 0.74829 0.27635 1299 2404060
1337 1.89171 0.26335 1336 2412817
1338 0.98746 0.24969999999999998 1337 2988389
1339 0.31608 0.24380000000000002 1338 2988390
1340 0.14683 0.24175000000000002 1339 2988392
1341 0.27918 0.2412 1339 2988402
1342 0.42145 0.24335 1338 2988401
1343 0.14286 0.25355 1337 2901905
1344 0.31706 0.25145 1343 2901907
1345 0.18973 0.24914999999999998 1344 2901909
1346 0.3568 0.2467 1345 2988383
1347 0.18836 0.24745 1345 2988385
1348 1.31412 0.24415 1344 7232511
1349 0.20221 0.25195 1343 2901912
1350 0.58171 0.2696 1336 2404070
1351 0.64635 0.2984 1292 7655427
1352 0.12977 0.31294999999999995 1291 2380484
1353 1.42805 0.3041 1352 3004710
1354 0.56093 0.29295 1353 3004716
1355 0.1793 0.28895 1354 3004830
1356 0.75886 0.2859 1354 7292749
1357 1.71212 0.2733 1356 7565633
1358 0.13717 0.264 1357 3570463
1359 0.24134 0.26215 1358 7565698
1360 0.2106 0.26365 1357 7565658
1361 0.58394 0.2789 1356 7566411
1362 0.18462 0.27495 1361 7566421
1363 2.56019 0.26349999999999996 1361 7566749
1364 1.23026 0.24559999999999998 1363 7566848
1365 0.48168 0.24895 1363 7566772
1366 0.84093 0.29145 1353 3004948
1367 0.28389 0.2854 1366 3004975
1368 0.92529 0.27915 1367 6845586
1369 0.49094 0.27195 1368 6845590
1370 0.30695 0.268 1369 7270086
1371 0.87914 0.27005 1368 6845615
1372 0.79452 0.26185 1371 6845628
1373 0.3425 0.264 1371 6845634
1374 1.01943 0.25749999999999995 1373 6845963
1375 0.4127 0.26034999999999997 1373 6845640
1376 1.78368 0.25025000000000003 1375 6846005
1377 0.47432 0.25615 1375 6845660
1378 0.57508 0.27149999999999996 1368 6845826
1379 0.79243 0.26475000000000004 1378 6845834
1380 0.88871 0.2643 1378 6845848
1381 0.26623 0.28254999999999997 1367 3005070
1382 2.48459 0.26890000000000003 1381 7564659
1383 1.22371 0.251 1382 7564843
1384 0.105 0.2561 1382 7564667
1385 2.21131 0.2702 1381 6845423
1386 0.62151 0.28364999999999996 1366 3102268
1387 1.38194 0.30435 1352 3004612
1388 8.78387 0.3795 1063 2207320
1389 5.59037 0.28735 1388 6687122
1390 0.0807 0.2573 1389 2207339
1391 0.93589 0.2526 1390 2207345
1392 2.63881 0.23695 1391 2379567
1393 0.1288 0.2251 1392 2413330
1394 0.34557 0.2232 1393 2379581
1395 1.3462 0.21655 1394 2379603
1396 2.91581 0.2009 1395 2408625
1397 0.52115 0.20934999999999998 1395 2379608
1398 1.36148 0.2025 1397 2407230
1399 0.09011 0.1973 1398 2407234
1400 0.90833 0.1945 1398 2407267
1401 1.15916 0.18755 1400 6711370
1402 0.26115 0.1905 1400 2407276
1403 2.92958 0.1972 1397 3104693
1404 0.35179 0.18585000000000002 1403 3104838
1405 0.51348 0.18305 1404 3105240
1406 0.76068 0.18225 1404 3105173
1407 1.11482 0.1764 1406 3105196
1408 0.50741 0.17145 1407 3105200
1409 0.18001 0.17245 1407 3105205
1410 0.09558 0.1795 1406 3105221
1411 0.31729 0.18595 1403 3104718
1412 0.04239 0.21115 1395 2413372
1413 0.04291 0.21084999999999998 1412 2413373
1414 0.43103 0.20905 1413 2413376
1415 1.64191 0.20155 1414 2570024
1416 0.77434 0.19305 1415 2570034
1417 0.64169 0.18825 1416 2570046
1418 0.36126 0.1892 1416 3010908
1419 2.29334 0.1881 1415 3011135
1420 0.91193 0.2041 1414 2413391
1421 2.07544 0.2032 1413 3104445
1422 1.20117 0.1916 1421 3104568
1423 0.64557 0.1935 1421 7280640
1424 0.68914 0.20845 1412 3102296
1425 0.94946 0.21805 1394 3102360
1426 0.97062 0.2207 1393 2413333
1427 0.31899 0.2156 1426 2413485
1428 0.13167 0.2139 1427 2413489
1429 0.86478 0.21015 1428 2413519
1430 0.37739 0.20550000000000002 1429 2413521
1431 0.64734 0.2018 1430 2570474
1432 0.60255 0.19735000000000003 1431 2570475
1433 0.28055 0.19425 1432 2570478
1434 1.63939 0.1879 1433 2970474
1435 0.81074 0.1906 1433 2570485
1436 1.33567 0.18359999999999999 1435 2970451
1437 0.56601 0.18605 1435 2970461
1438 0.79832 0.1925 1432 2916639
1439 0.19615 0.18914999999999998 1438 2970462
1440 0.55441 0.18795 1438 2970467
1441 1.97914 0.19275 1431 6712560
1442 0.74417 0.20145000000000002 1430 7600324
1443 0.26229 0.19785 1442 7600475
1444 3.0672 0.18685000000000002 1443 7601364
1445 0.46668 0.1754 1444 7601503
1446 0.09372 0.1765 1444 7601551
1447 2.14696 0.1699 1446 7656374
1448 0.5273 0.17459999999999998 1446 7601568
1449 0.13858 0.19645 1443 7600500
1450 0.49075 0.1971 1442 7600410
1451 0.79285 0.20124999999999998 1430 7600046
1452 0.39324 0.19705 1451 7600092
1453 0.26244 0.1975 1451 7600129
1454 1.3355 0.2021 1429 2413533
1455 1.16099 0.1933 1454 2970491
1456 1.03525 0.19375 1454 2413603
1457 0.58573 0.18825 1456 2413617
1458 0.52521 0.1846 1457 2413627
1459 0.54392 0.1812 1458 2413630
1460 0.05607 0.17930000000000001 1459 3061908
1461 0.76955 0.17675000000000002 1460 3113368
1462 1.07886 0.1758 1460 6844302
1463 0.09447 0.1792 1459 3061913
1464 0.24379 0.18209999999999998 1458 2413639
1465 0.57708 0.1795 1464 2413643
1466 0.50367 0.17615 1465 2421174
1467 0.74497 0.1724 1466 2421177
1468 0.9671 0.1674 1467 2516883
1469 0.14793 0.16975 1467 2570466
1470 0.17831 0.1741 1466 2421186
1471 0.79394 0.1753 1465 3102310
1472 0.09017 0.18105 1464 2413658
1473 1.34801 0.17664999999999997 1472 2413683
1474 0.82021 0.17825 1472 7205069
1475 0.13441 0.1753 1474 7205076
1476 1.15686 0.17225000000000001 1474 7599964
1477 1.2129 0.18245 1457 3113432
1478 0.04365 0.17845 1477 3113433
1479 0.99755 0.17554999999999998 1477 3113447
1480 0.05921 0.1723 1479 3113448
1481 0.47741 0.17104999999999998 1479 7257119
1482 1.87704 0.18415 1456 7270394
1483 0.30785 0.17715 1482 7270395
1484 1.24188 0.17245 1483 7270462
1485 0.1852 0.17559999999999998 1483 7270526
1486 1.63132 0.17320000000000002 1482 7270507
1487 1.15258 0.2091 1428 2970477
1488 0.19778 0.20405 1487 2970484
1489 0.04337 0.2046 1487 2970480
1490 0.13678 0.2039 1489 2970482
1491 1.52703 0.19905 1489 6844523
1492 0.13077 0.19325 1491 6844521
1493 0.81167 0.19095 1491 6844528
1494 4.81109 0.17370000000000002 1493 7202811
1495 0.12897 0.15885 1494 7202813
1496 0.45538 0.158 1494 7202822
1497 0.43302 0.18675 1493 6844536
1498 0.90682 0.21095 1427 7603056
1499 1.6146 0.20174999999999998 1498 7603858
1500 0.28663 0.195 1499 7603868
1501 0.68224 0.19365 1499 7604045
1502 0.25501 0.2066 1498 7603633
1503 0.83952 0.2136 1426 2413462
1504 1.29168 0.2205 1392 3102329
1505 0.04329 0.2152 1504 3102332
1506 0.48894 0.21350000000000002 1504 3102344
1507 1.72116 0.24075 1391 2207427
1508 0.3555 0.2317 1507 2207437
1509 0.29489 0.23195 1507 2207447
1510 1.01826 0.22654999999999997 1509 2207464
1511 0.0499 0.2222 1510 2207466
1512 1.17555 0.21739999999999998 1511 2207469
1513 0.53973 0.2108 1512 2406987
1514 1.27215 0.20415 1513 2406995
1515 0.93518 0.19625 1514 2407128
1516 0.18315 0.19240000000000002 1515 2407131
1517 0.26091 0.19090000000000001 1516 2407137
1518 0.25548 0.18914999999999998 1517 2407140
1519 0.52139 0.18825 1517 2897040
1520 0.93083 0.18355 1519 3111434
1521 0.40166 0.17930000000000001 1520 3111437
1522 0.54336 0.17635 1521 3111450
1523 0.25828 0.1739 1522 3111453
1524 0.08621 0.17445 1522 3111455
1525 0.04981 0.17785 1521 3111448
1526 0.27186 0.17975000000000002 1520 3111438
1527 0.09334 0.17859999999999998 1526 3111440
1528 0.44322 0.1775 1526 3111444
1529 0.03909 0.1864 1519 2897046
1530 2.17433 0.1795 1529 3111533
1531 3.13982 0.17665 1529 3111494
1532 0.67945 0.1895 1516 3107278
1533 0.91104 0.18425 1532 3107311
1534 0.3107 0.18035 1533 3107336
1535 0.40215 0.18005 1533 3107374
1536 0.09038 0.1869 1532 3107398
1537 1.86054 0.18075 1536 3107823
1538 0.52931 0.1733 1537 3107877
1539 0.59631 0.1731 1537 3107930
1540 0.84168 0.1839 1536 3107612
1541 0.04062 0.18105 1540 3107614
1542 0.14976 0.18045 1541 3107749
1543 0.67843 0.17880000000000001 1541 7256739
1544 0.60561 0.17930000000000001 1540 7256792
1545 1.13941 0.1892 1515 2407166
1546 0.1765 0.18485000000000001 1545 2407172
1547 0.92875 0.18245 1545 2407210
1548 1.52771 0.19425 1514 2407015
1549 1.2699 0.1849 1548 3106766
1550 0.37742 0.17959999999999998 1549 3106818
1551 0.33532 0.17975 1549 3106863
1552 0.25843 0.18814999999999998 1548 2407028
1553 0.1685 0.18675 1552 2407031
1554 0.68289 0.1851 1552 3105255
1555 0.3929 0.18165 1554 3105419
1556 0.9968 0.1773 1555 3105860
1557 0.446 0.17285 1556 3105889
1558 0.20946 0.17354999999999998 1556 3105898
1559 0.377 0.1718 1558 3105904
1560 0.37972 0.1696 1559 3107113
1561 0.14728 0.16805 1560 3107133
1562 1.06735 0.16544999999999999 1560 6770487
1563 0.18324 0.17015 1559 3105912
1564 0.27944 0.1699 1559 3105927
1565 1.37215 0.1652 1564 3106577
1566 0.26115 0.16055 1565 3106636
1567 0.39596 0.1602 1565 3106676
1568 0.52216 0.1577 1567 3106741
1569 0.09621 0.15885 1567 3106695
1570 0.32939 0.1681 1564 3105962
1571 0.55322 0.16555 1570 3106279
1572 0.14077 0.16360000000000002 1571 3106285
1573 0.24969 0.1633 1571 3106302
1574 0.27666 0.16635 1570 3105982
1575 1.06993 0.1626 1574 3106008
1576 0.36054 0.1586 1575 3106049
1577 1.20581 0.15444999999999998 1576 3106175
1578 0.91688 0.1552 1576 7568092
1579 0.24735 0.15889999999999999 1575 3106042
1580 0.78149 0.1634 1574 7280460
1581 0.4758 0.17149999999999999 1558 3107183
1582 0.78715 0.16785 1581 6781836
1583 0.58565 0.1684 1581 7604422
1584 0.43917 0.16544999999999999 1583 7605689
1585 1.90392 0.16144999999999998 1583 7604599
1586 0.06109 0.156 1585 7604605
1587 0.4595 0.15495 1585 7604632
1588 0.04032 0.15360000000000001 1587 7604637
1589 1.47968 0.14995 1587 7604826
1590 0.42212 0.17905 1555 3105420
1591 1.06001 0.1745 1590 3105563
1592 2.69243 0.16375 1591 7568392
1593 1.48994 0.15234999999999999 1592 7663191
1594 0.79731 0.1465 1593 7663641
1595 0.65465 0.14295 1594 7663864
1596 0.10316 0.14115 1595 7663869
1597 0.72288 0.1397 1595 7663970
1598 0.05967 0.13790000000000002 1597 7663987
1599 0.91062 0.13595000000000002 1597 7664071
1600 0.40877 0.133 1599 7664206
1601 0.35935 0.13135 1600 7664286
1602 0.2087 0.13015 1601 7664291
1603 0.10667 0.13035 1601 7664338
1604 0.19927 0.13169999999999998 1600 7664243
1605 0.49274 0.13285 1599 7664135
1606 0.08724 0.14429999999999998 1594 7663680
1607 0.13214 0.14815 1593 7663204
1608 0.55757 0.1547 1592 7573719
1609 1.5484 0.1522 1592 7568442
1610 1.13997 0.1454 1609 7569583
1611 0.40915 0.14165 1610 7570761
1612 0.17048 0.14029999999999998 1611 7570776
1613 0.04159 0.1406 1611 7570821
1614 0.28265 0.1398 1613 7570905
1615 0.49589 0.138 1614 7606036
1616 0.41503 0.13815 1614 7571089
1617 0.62118 0.13579999999999998 1616 7571305
1618 0.73599 0.1328 1617 7613398
1619 2.61112 0.1289 1617 7572680
1620 0.32564 0.1365 1616 7571168
1621 0.43815 0.13945000000000002 1613 7664785
1622 3.39066 0.13505 1610 7570257
1623 0.91924 0.14595 1609 7573689
1624 1.54958 0.14445 1609 7568971
1625 1.0157 0.16835 1591 3105576
1626 1.14121 0.1622 1625 3105640
1627 0.921 0.1628 1625 3105713
1628 0.9119 0.17495 1590 3105508
1629 1.59501 0.17795 1554 3105284
1630 0.04575 0.17285 1629 3105285
1631 0.05239 0.17254999999999998 1630 3105296
1632 0.7331 0.17054999999999998 1630 3105350
1633 0.10474 0.1681 1632 3105353
1634 0.16387 0.1679 1632 3105373
1635 0.09238 0.1727 1629 3105287
1636 1.29173 0.2041 1513 3107951
1637 0.53245 0.1975 1636 3107964
1638 0.64442 0.19340000000000002 1637 3108008
1639 1.68003 0.19 1637 3108228
1640 1.45677 0.17980000000000002 1639 6844667
1641 1.94638 0.16949999999999998 1640 7232564
1642 1.01878 0.1722 1640 6844739
1643 0.21801 0.16854999999999998 1642 6844738
1644 0.56381 0.16754999999999998 1642 6844754
1645 0.05654 0.1842 1639 3108230
1646 0.35633 0.18285 1645 3108312
1647 0.60689 0.17980000000000002 1646 3108314
1648 0.74768 0.17565 1647 3108324
1649 0.27471 0.17704999999999999 1647 3109134
1650 0.91669 0.17885 1646 3108462
1651 0.79447 0.17359999999999998 1650 3108525
1652 0.43903 0.1699 1651 3108914
1653 0.68662 0.16665000000000002 1652 7289059
1654 0.75778 0.16645 1652 7289155
1655 0.48259 0.1698 1651 3109066
1656 0.04528 0.16825 1655 3109086
1657 1.11047 0.16525 1655 3109127
1658 3.57561 0.1658 1650 3108806
1659 2.79489 0.1755 1645 3257260
1660 0.57942 0.19735 1636 3108206
1661 0.09389 0.195 1660 3109146
1662 1.22366 0.19119999999999998 1660 3109186
1663 1.17371 0.1833 1662 3109344
1664 0.61967 0.17759999999999998 1663 3109391
1665 0.15468 0.1752 1664 3109419
1666 0.68641 0.1736 1664 7256891
1667 0.19201 0.1789 1663 3109364
1668 0.18995 0.18645 1662 3109252
1669 0.41075 0.21125 1512 2386755
1670 0.65241 0.21945 1511 2207473
1671 0.04025 0.2167 1670 2207474
1672 1.65102 0.21065 1670 3111747
1673 2.05636 0.19724999999999998 1672 3111863
1674 0.45721 0.18855 1673 3111886
1675 1.14177 0.18335 1674 3111951
1676 0.05876 0.1868 1674 3111892
1677 0.28276 0.18914999999999998 1673 3111879
1678 0.15781 0.20385 1672 3111791
1679 2.79386 0.2118 1510 2386337
1680 0.23377 0.2004 1679 2386338
1681 0.75089 0.19695000000000001 1680 2386347
1682 1.50991 0.19440000000000002 1680 2967669
1683 0.0449 0.20105 1679 2386349
1684 2.94563 0.191 1683 2386597
1685 1.3804 0.17685 1684 2966359
1686 0.21744 0.17195 1685 6844335
1687 0.44249 0.16999999999999998 1686 6844322
1688 0.39673 0.16754999999999998 1687 6844331
1689 0.92115 0.16604999999999998 1687 6844385
1690 0.27122 0.16265 1689 6844399
1691 0.52887 0.16194999999999998 1689 6844390
1692 0.80747 0.16895 1686 6844353
1693 0.73748 0.1704 1685 2966990
1694 0.51301 0.16675 1693 2967007
1695 0.54272 0.16375 1694 2967160
1696 0.04123 0.16210000000000002 1695 2967166
1697 0.9456 0.1594 1696 2967308
1698 0.47178 0.1609 1695 2967379
1699 0.04751 0.1681 1693 2967024
1700 0.15984 0.1806 1684 2386633
1701 0.40446 0.17885 1700 2386647
1702 0.11448 0.17725000000000002 1701 2386649
1703 0.49507 0.17535 1702 2386652
1704 0.46585 0.1724 1703 2386699
1705 0.93718 0.1683 1704 2386723
1706 0.40339 0.16444999999999999 1705 2386728
1707 0.35605 0.1646 1705 2386733
1708 0.26089 0.17025 1704 2916083
1709 0.49792 0.16805 1708 6844434
1710 1.48308 0.16244999999999998 1709 6844456
1711 0.6206 0.15665 1710 6844461
1712 0.50132 0.157 1710 6844483
1713 0.87299 0.167 1708 7269591
1714 0.41621 0.1756 1702 2386658
1715 0.36599 0.17320000000000002 1714 2386671
1716 0.0401 0.172 1715 2386673
1717 0.21181 0.17145 1715 2916978
1718 0.32235 0.1699 1717 2965929
1719 0.6362 0.16895 1717 7259045
1720 1.43749 0.17005 1714 7549956
1721 0.78861 0.1636 1720 7550184
1722 0.1464 0.16099999999999998 1721 7550387
1723 0.39352 0.1603 1721 7550434
1724 1.04114 0.1629 1720 7550062
1725 0.23462 0.15935 1724 7550074
1726 0.37215 0.159 1724 7550125
1727 0.87338 0.1749 1701 2965868
1728 0.06701 0.172 1727 2965884
1729 0.31081 0.1713 1727 2965891
1730 1.18868 0.17645 1700 2965954
1731 2.34902 0.16605 1730 7549229
1732 1.81799 0.15455 1731 7549478
1733 0.69805 0.15744999999999998 1731 7549768
1734 0.13806 0.15525 1733 7549773
1735 0.87948 0.1533 1733 7549807
1736 0.09091 0.1725 1730 7280711
1737 1.39838 0.19605 1683 2386360
1738 0.04217 0.19105 1737 2386376
1739 0.04743 0.19074999999999998 1738 2386377
1740 0.21195 0.1899 1739 2386383
1741 1.04139 0.18580000000000002 1740 2386385
1742 0.14681 0.18195 1741 2386399
1743 0.28489 0.1815 1741 7258225
1744 0.47312 0.1791 1743 2967678
1745 0.04016 0.1775 1744 2967679
1746 0.68386 0.1755 1744 2967715
1747 0.6989 0.1784 1743 7551847
1748 0.86247 0.1736 1747 7551920
1749 0.65198 0.18705 1740 7203221
1750 0.25695 0.18405 1749 7552045
1751 0.80924 0.18065 1750 7590298
1752 0.04867 0.17795 1751 7590299
1753 0.88757 0.1804 1750 7590024
1754 0.22015 0.17695 1753 7589961
1755 0.37201 0.17515 1754 7589969
1756 0.24511 0.17555 1754 7589979
1757 0.81078 0.18230000000000002 1749 7590206
1758 0.92671 0.17685 1757 7590234
1759 0.36836 0.17855 1757 7590265
1760 1.80446 0.18475 1739 2916842
1761 0.56511 0.17715 1760 3111589
1762 0.05263 0.17875000000000002 1760 2916851
1763 1.79333 0.1851 1738 2967729
1764 0.7817 0.1886 1737 2386363
1765 1.47418 0.18135 1764 2386421
1766 0.60064 0.17485 1765 2386423
1767 0.16521 0.1725 1766 2386444
1768 0.73202 0.17085 1766 2386435
1769 0.23049 0.16799999999999998 1768 2386438
1770 0.87875 0.16615 1768 2408673
1771 0.55104 0.1621 1770 2408691
1772 0.08434 0.16035 1771 2408702
1773 0.74911 0.15855 1771 7280131
1774 0.31839 0.15565 1773 7280133
1775 0.64941 0.1548 1773 7292318
1776 1.44124 0.1597 1770 2413262
1777 0.47035 0.15455 1776 2916379
1778 0.11261 0.1555 1776 7240415
1779 0.26024 0.1759 1765 2386456
1780 2.52441 0.1678 1779 2386492
1781 0.10585 0.1602 1780 2386494
1782 0.23149 0.15985 1780 2386513
1783 0.95747 0.15665 1782 7291213
1784 0.56219 0.1577 1782 2386555
1785 0.5749 0.15465 1784 2386563
1786 0.40569 0.15510000000000002 1784 2386569
1787 1.89153 0.15545 1780 2967883
1788 0.52649 0.1491 1787 2967884
1789 0.31109 0.14705000000000001 1788 2967891
1790 1.48911 0.1442 1788 3102287
1791 1.16089 0.14755000000000001 1787 2967908
1792 0.38521 0.1739 1779 2386481
1793 0.52204 0.18430000000000002 1764 2386369
1794 0.13688 0.1822 1793 2386370
1795 0.8995 0.17980000000000002 1793 3099721
1796 0.29515 0.17609999999999998 1795 3099725
1797 0.7563 0.1729 1796 6844259
1798 0.088 0.1749 1796 6769870
1799 0.22243 0.1763 1795 3099730
1800 1.41944 0.19629999999999997 1679 2916909
1801 0.05126 0.19119999999999998 1800 2965809
1802 0.04499 0.19124999999999998 1800 2965820
1803 0.48493 0.22049999999999997 1510 2207477
1804 3.11297 0.2185 1509 3112067
1805 0.64825 0.20395000000000002 1804 3112076
1806 0.18783 0.20095000000000002 1805 3112077
1807 1.38257 0.1955 1806 3112098
1808 0.97618 0.1875 1807 3113518
1809 0.50166 0.1827 1808 3113538
1810 0.04522 0.18414999999999998 1808 3113555
1811 1.12003 0.187 1807 3112110
1812 0.05061 0.2001 1806 3112083
1813 0.08586 0.2013 1805 3112079
1814 0.27197 0.2053 1804 3112073
1815 1.27037 0.2511 1390 2207401
1816 1.60194 0.25034999999999996 1389 6687129
1817 1.23321 0.2377 1816 6846065
1818 0.35928 0.2309 1817 6846079
1819 1.65367 0.22275 1818 6847005
1820 0.45854 0.21434999999999998 1819 6847018
1821 0.20495 0.2153 1819 6847009
1822 0.0554 0.2143 1821 6847010
1823 0.31497 0.2133 1821 6847014
1824 0.19244 0.2286 1818 6846087
1825 0.77167 0.22465000000000002 1824 6846095
1826 0.14191 0.22095 1825 6846974
1827 0.74679 0.21860000000000002 1825 6846979
1828 1.02953 0.22365000000000002 1824 6846987
1829 0.26821 0.23125 1817 6846069
1830 0.70605 0.23995 1816 6844817
1831 0.32797 0.2355 1830 6844841
1832 2.43001 0.22425 1831 6844867
1833 1.1022 0.21025 1832 6844881
1834 1.60642 0.20040000000000002 1833 6844904
1835 0.24613 0.2052 1833 7289394
1836 2.08412 0.20675 1832 6844961
1837 0.22118 0.1983 1836 6844933
1838 0.35489 0.19625 1837 6844925
1839 3.05876 0.1851 1838 6847089
1840 0.4041 0.19365 1838 6847041
1841 0.25786 0.19140000000000001 1840 6847044
1842 2.9328 0.1829 1840 7257442
1843 0.21298 0.17285 1842 7257445
1844 0.98016 0.17059999999999997 1842 7257971
1845 1.3016 0.19305 1837 6846211
1846 0.14926 0.1881 1845 6846214
1847 0.23333 0.18685 1846 6846297
1848 0.14656 0.18564999999999998 1847 6846290
1849 0.46988 0.1846 1847 6846304
1850 1.80112 0.1819 1846 6846798
1851 0.95284 0.1733 1850 7238622
1852 0.14528 0.17575000000000002 1850 6846805
1853 1.63655 0.17135 1850 7232649
1854 2.22234 0.18155 1845 6846265
1855 2.1025 0.19195 1836 6846123
1856 0.76703 0.18235 1855 6846157
1857 1.09021 0.18135 1855 7287026
1858 0.82103 0.1822 1855 3572117
1859 0.78394 0.2308 1831 6847022
1860 0.2074 0.22665000000000002 1859 6847026
1861 0.51906 0.2254 1859 7267374
1862 0.33617 0.23545 1830 6844818
1863 3.82578 0.21895 1862 6846973
1864 0.75315 0.23085 1862 6846504
1865 1.2655 0.22265000000000001 1864 6846877
1866 2.25619 0.21885 1864 6846905
1867 8.86469 0.27285 1388 2207533
1868 43.74698 0.1441 1867 20802810
1869 1.15762 0.22405 1867 3061759
1870 6.52144 0.442 0 2206510
1871 0.54626 0.43745 1870 2206496
1872 6.44161 0.38595 1871 2206458
1873 0.58517 0.33530000000000004 1872 2206459
1874 0.77042 0.32689999999999997 1873 2411331
1875 2.55669 0.30755 1874 2411431
1876 0.52056 0.2901 1875 2567344
1877 0.95549 0.2878 1875 2411469
1878 0.18657 0.28175 1877 2288151
1879 0.48183 0.2783 1878 2411487
1880 0.19308 0.27485 1879 2411495
1881 0.08305 0.27344999999999997 1880 2411509
1882 0.23283 0.27185000000000004 1881 2411516
1883 0.04042 0.27049999999999996 1882 2285248
1884 0.98384 0.26549999999999996 1883 2284109
1885 0.15428 0.25995 1884 2411612
1886 1.03427 0.25439999999999996 1885 8131822
1887 3.13944 0.24519999999999997 1885 3276828
1888 1.11318 0.26525 1882 3365472
1889 0.11095 0.2593 1888 3365473
1890 0.60899 0.25695 1888 8153602
1891 1.26602 0.27625 1877 3365492
1892 0.79149 0.3175 1874 3365480
1893 0.4447 0.32889999999999997 1873 2413073
1894 2.0893 0.31395 1893 2407623
1895 1.0993 0.29565 1894 2410432
1896 0.49916 0.2989 1894 2407684
1897 2.13192 0.2849 1896 2408797
1898 0.61587 0.2706 1897 2409465
1899 0.82873 0.2635 1898 2409493
1900 0.45557 0.25734999999999997 1899 2409502
1901 0.04031 0.2593 1899 2409504
1902 0.65298 0.25605 1901 2409517
1903 1.82018 0.25075000000000003 1901 2409539
1904 0.22781 0.2414 1903 2409547
1905 0.32919 0.241 1903 3207316
1906 0.2926 0.2722 1897 2408815
1907 1.5438 0.26325 1906 2409562
1908 0.12512 0.2552 1907 2409566
1909 0.07507 0.25425 1908 2409571
1910 0.56341 0.2532 1907 3365475
1911 0.34351 0.269 1906 2408837
1912 0.8839 0.2693 1897 3207365
1913 0.29364 0.2945 1896 2407817
1914 0.96358 0.28775 1913 2407876
1915 0.63433 0.27935 1914 2407948
1916 1.01186 0.27745 1914 8405778
1917 0.17927 0.29195 1913 2407890
1918 0.94949 0.28595 1917 3365470
1919 0.08975 0.2905 1917 2407914
1920 0.08132 0.3385 1872 2411764
1921 1.46181 0.329 1920 2411771
1922 0.78994 0.31535 1921 2433246
1923 0.6157 0.30715 1922 2433247
1924 0.4936 0.30084999999999995 1923 2433253
1925 1.50738 0.29 1924 2433263
1926 0.19309 0.2809 1925 2433264
1927 0.7764 0.27595000000000003 1926 2433280
1928 0.1744 0.2711 1927 2433281
1929 0.08146 0.2698 1928 2433289
1930 0.07131 0.26905 1929 2433290
1931 0.23652 0.26755 1930 2433293
1932 0.9409 0.26415 1930 2433309
1933 0.22326 0.25855 1932 2433313
1934 0.15952 0.25885 1932 2433315
1935 0.69431 0.26680000000000004 1928 3367443
1936 0.87701 0.26765 1927 2433284
1937 0.17121 0.26249999999999996 1936 2433287
1938 0.82134 0.25939999999999996 1936 2271413
1939 1.51251 0.24864999999999998 1938 8154917
1940 1.29191 0.23625 1939 8155006
1941 0.17198 0.22999999999999998 1940 8155011
1942 0.14023 0.2301 1940 6910476
1943 0.12287 0.24125 1939 8154928
1944 0.72539 0.23864999999999997 1939 8154992
1945 0.10754 0.27935 1926 2433317
1946 0.05876 0.27845 1945 2433318
1947 0.94755 0.274 1945 8148872
1948 0.13844 0.26849999999999996 1947 8148873
1949 0.16249 0.26839999999999997 1947 8148897
1950 0.78062 0.29385 1924 2433321
1951 0.68309 0.28595000000000004 1950 2433325
1952 1.82827 0.2731 1951 2433350
1953 0.38453 0.26205 1952 2433358
1954 0.23459 0.2591 1953 2433363
1955 0.96445 0.25355 1954 2433377
1956 0.80752 0.24545 1955 2433379
1957 0.52328 0.24669999999999997 1955 2433386
1958 0.34182 0.2428 1957 2433401
1959 0.67248 0.24135 1957 2433392
1960 0.16726 0.28145 1951 8150411
1961 0.0401 0.28935 1950 2433402
1962 1.71959 0.2802 1961 2433412
1963 0.6439 0.2857 1961 2433414
1964 2.36209 0.27054999999999996 1963 2433451
1965 0.06451 0.25849999999999995 1964 2433453
1966 0.49763 0.25585 1965 2433461
1967 0.04001 0.258 1965 2433456
1968 0.68319 0.2788 1963 2433417
1969 0.12171 0.3029 1923 2433464
1970 2.86648 0.28700000000000003 1969 2433510
1971 0.33177 0.27015 1970 2433516
1972 0.2094 0.26745 1971 2283816
1973 0.09014 0.26595 1972 2433521
1974 0.88787 0.26125 1973 2283873
1975 0.51907 0.2546 1974 2433547
1976 0.35738 0.25055 1975 2433551
1977 0.80214 0.24855 1975 2433565
1978 1.19645 0.25980000000000003 1973 8131952
1979 2.31223 0.2576 1971 3365574
1980 0.3582 0.24509999999999998 1979 3365576
1981 0.52631 0.24435 1979 3365586
1982 0.56358 0.29910000000000003 1969 3206343
1983 0.90519 0.3055 1922 2537408
1984 0.31397 0.2986 1983 2537412
1985 1.30147 0.2899 1984 2537438
1986 0.08731 0.28245 1985 2537445
1987 1.53765 0.2742 1986 7569149
1988 0.0454 0.2662 1987 2537520
1989 0.96541 0.26134999999999997 1988 2537869
1990 0.16029 0.2652 1988 2284329
1991 0.44454 0.26225 1990 2537561
1992 0.26758 0.25885 1991 2537567
1993 2.51512 0.2487 1991 2537680
1994 0.12021 0.2368 1993 2537697
1995 0.15625 0.2356 1994 2537717
1996 1.25301 0.23105 1994 2567338
1997 0.50172 0.2794 1986 2537480
1998 0.52552 0.27415 1997 8153399
1999 0.10498 0.27625 1997 7569047
2000 2.50396 0.28375 1984 3365637
2001 1.90944 0.26145 2000 3365858
2002 0.45045 0.25025000000000003 2001 3365863
2003 0.64138 0.24935000000000002 2001 3365866
2004 0.18695 0.25145 2001 3365870
2005 0.11695 0.25005 2004 3365875
2006 0.26375 0.2483 2005 3365882
2007 0.44057 0.2475 2005 3365880
2008 0.69806 0.26715 2000 3365651
2009 0.81861 0.25980000000000003 2008 3365689
2010 0.18677 0.26280000000000003 2008 2270744
2011 0.30841 0.26045 2010 3365711
2012 2.09639 0.24945 2011 3365852
2013 1.42344 0.2524 2011 3365787
2014 0.82035 0.2422 2013 3365804
2015 2.49121 0.2871 1983 3260269
2016 0.27187 0.27249999999999996 2015 2287534
2017 0.95187 0.26644999999999996 2016 2287486
2018 0.29302 0.26039999999999996 2017 3365966
2019 1.16506 0.2536 2018 3365969
2020 0.30238 0.24685 2019 3277310
2021 0.1004 0.24505 2020 3366995
2022 0.25715 0.24345 2021 3367000
2023 0.10328 0.24185 2022 3367003
2024 0.86355 0.23854999999999998 2022 8143657
2025 0.43359 0.2427 2021 3367005
2026 0.24237 0.2471 2019 2287254
2027 0.59186 0.2434 2026 3367022
2028 0.13565 0.2402 2027 3219898
2029 1.98861 0.23125 2028 3367075
2030 0.49043 0.22094999999999998 2029 3367081
2031 0.49911 0.22094999999999998 2029 3276127
2032 1.48235 0.2133 2031 3367119
2033 0.17391 0.20700000000000002 2032 3367125
2034 0.04111 0.25880000000000003 2018 3365983
2035 0.67816 0.25545 2034 3365990
2036 4.68088 0.23260000000000003 2035 3366307
2037 0.04691 0.21275 2036 3366308
2038 0.50339 0.2107 2037 3366367
2039 1.58023 0.2031 2038 3366404
2040 0.23297 0.1966 2039 3366422
2041 0.12386 0.19535 2040 3366429
2042 1.03958 0.19140000000000001 2041 3366482
2043 0.21501 0.1872 2042 3366488
2044 0.43218 0.18645 2042 3366508
2045 0.24499 0.18425 2044 3366941
2046 0.65836 0.1814 2045 3366946
2047 0.48666 0.1778 2046 3366954
2048 0.08222 0.17905 2046 3366957
2049 0.121 0.1784 2048 3366964
2050 0.45406 0.1774 2048 3366962
2051 0.78819 0.1825 2044 3366968
2052 0.04319 0.17985 2051 3366969
2053 0.74472 0.19235 2041 3366436
2054 0.83401 0.1871 2053 3366455
2055 0.15141 0.1893 2053 3366442
2056 1.06193 0.20490000000000003 2038 3366974
2057 0.44062 0.19945000000000002 2056 3366984
2058 0.29675 0.1969 2057 3366988
2059 0.24131 0.19505 2058 3366990
2060 0.66732 0.1956 2057 3367356
2061 0.08544 0.2007 2056 3366978
2062 0.5827 0.2104 2037 3366331
2063 0.58628 0.20605 2062 3366354
2064 0.644 0.20584999999999998 2062 3367421
2065 0.32908 0.20229999999999998 2064 3367423
2066 0.6184 0.20129999999999998 2064 3367428
2067 3.66055 0.23660000000000003 2035 3366047
2068 1.13185 0.21650000000000003 2067 3366066
2069 0.06813 0.21185 2068 3366067
2070 0.08032 0.22060000000000002 2067 3366077
2071 0.55208 0.21810000000000002 2070 3366097
2072 0.68655 0.2133 2071 3366100
2073 0.96123 0.21225 2071 3366116
2074 0.22889 0.20775 2073 3366122
2075 0.34426 0.20565 2074 3366125
2076 0.58099 0.20479999999999998 2074 3366150
2077 0.57865 0.20065 2076 3366166
2078 0.52178 0.21825 2070 3366086
2079 1.10459 0.2535 2034 2287168
2080 0.51359 0.24609999999999999 2079 3367147
2081 0.55951 0.24135 2080 3367149
2082 0.10157 0.23845 2081 2286321
2083 1.39495 0.23299999999999998 2081 3367186
2084 0.24678 0.2261 2083 3367189
2085 0.125 0.2266 2083 3367194
2086 0.31432 0.2248 2085 3367199
2087 0.31216 0.22225 2086 3367202
2088 0.05679 0.2233 2086 3367203
2089 0.57913 0.22375 2085 8734735
2090 0.14817 0.24314999999999998 2080 3367155
2091 1.06546 0.23785 2090 3367171
2092 0.09604 0.24205 2090 3367175
2093 1.23567 0.31275 1921 2537372
2094 0.83502 0.30085 2093 2271124
2095 0.33774 0.29435 2094 2537393
2096 2.25067 0.2808 2095 3188706
2097 3.17002 0.2544 2096 3188762
2098 0.17227 0.29155 2095 3188766
2099 1.23997 0.2841 2098 3188896
2100 1.10503 0.27205 2099 3188937
2101 0.63051 0.26345 2100 3188938
2102 0.37306 0.25865000000000005 2101 3188940
2103 1.5752 0.2497 2102 3189799
2104 0.33879 0.25529999999999997 2102 3188956
2105 0.34779 0.2521 2104 3189823
2106 0.34599 0.2521 2104 3190116
2107 1.00084 0.246 2106 3190201
2108 0.04142 0.25029999999999997 2106 3190144
2109 0.80949 0.2465 2108 3190190
2110 0.80974 0.2465 2108 3190171
2111 0.27793 0.2591 2101 3189728
2112 0.12447 0.2659 2100 3207490
2113 0.11568 0.26475 2112 3367477
2114 0.45145 0.262 2113 8132034
2115 0.4045 0.27555 2099 3190223
2116 1.90684 0.26425 2115 3190432
2117 0.04002 0.2548 2116 3190433
2118 0.1419 0.25434999999999997 2116 3190438
2119 0.26546 0.27215 2115 3190250
2120 1.9868 0.2613 2119 3190399
2121 2.3281 0.25975 2119 2284437
2122 0.04301 0.2485 2121 3190364
2123 1.6737 0.28190000000000004 2098 2271144
2124 0.29007 0.27175 2123 3188800
2125 0.84731 0.26615 2124 3188806
2126 0.21597 0.26095 2125 3188840
2127 0.6201 0.257 2126 3188853
2128 0.8647 0.2579 2125 3188811
2129 0.58122 0.25115 2128 3367411
2130 0.04575 0.2483 2129 3188814
2131 0.17279 0.253 2128 3188816
2132 0.113 0.2517 2131 3188817
2133 0.15822 0.25045 2132 3188824
2134 0.28451 0.2484 2133 3188835
2135 0.34304 0.3036 2093 3206903
2136 0.08565 0.3012 2135 3206906
2137 0.1697 0.30075 2135 8760278
2138 0.80109 0.2954 2137 8760327
2139 0.217 0.29855 2137 8760364
2140 0.15722 0.337 1920 2411789
2141 1.10062 0.32920000000000005 2140 2411821
2142 1.04688 0.31620000000000004 2141 2288282
2143 0.31996 0.30820000000000003 2142 2411852
2144 0.88031 0.30145 2143 2411885
2145 0.44539 0.29405000000000003 2144 2411898
2146 2.31569 0.27965 2145 2433223
2147 0.8512 0.2871 2145 2411927
2148 0.05049 0.2823 2147 2411929
2149 0.451 0.27969999999999995 2148 2411930
2150 0.71093 0.2738 2149 2433227
2151 0.19759 0.2764 2149 2433239
2152 0.47131 0.27959999999999996 2148 2411937
2153 1.30957 0.27065 2152 2433237
2154 0.7867 0.2732 2152 2411962
2155 0.43878 0.26705 2154 2411999
2156 0.36827 0.26315 2155 2412002
2157 0.63187 0.2584 2156 2433073
2158 0.15215 0.26065000000000005 2156 2412017
2159 1.96183 0.25575000000000003 2155 2412061
2160 3.66227 0.2313 2159 2412123
2161 0.43264 0.2143 2160 2433078
2162 0.45301 0.2109 2161 2433086
2163 2.09723 0.2017 2162 2433098
2164 0.44692 0.20755 2162 2433102
2165 0.04277 0.20575 2164 2433103
2166 0.39361 0.20415 2165 2433113
2167 0.24673 0.2047 2165 2433114
2168 1.0351 0.2001 2167 2433124
2169 0.26878 0.20285 2167 2433128
2170 0.9595 0.1985 2169 2433148
2171 0.62581 0.19295 2170 2433155
2172 0.30416 0.1898 2171 2433157
2173 0.2194 0.1901 2171 2433160
2174 0.04031 0.18925 2173 2433161
2175 1.63419 0.18385 2174 2433185
2176 0.10739 0.17825000000000002 2175 2433187
2177 0.47626 0.17645 2176 2433194
2178 0.23815 0.1883 2174 2433169
2179 0.68598 0.19275 2170 3365593
2180 2.17134 0.19824999999999998 2164 5730441
2181 0.21311 0.1899 2180 8149681
2182 0.12465 0.18880000000000002 2181 5731353
2183 0.33005 0.18730000000000002 2182 5612561
2184 0.8751 0.1834 2183 5731365
2185 0.30299 0.17965 2184 5731366
2186 0.3701 0.17754999999999999 2185 5731368
2187 0.44667 0.1773 2185 8151909
2188 2.22972 0.17385 2184 5588446
2189 0.44319 0.16585 2188 5731386
2190 0.56624 0.16299999999999998 2189 5731391
2191 0.76866 0.16244999999999998 2189 5731397
2192 0.23762 0.15965000000000001 2191 5731400
2193 0.92942 0.1578 2191 5731405
2194 0.05314 0.18605 2183 8149610
2195 0.46508 0.1844 2194 5731362
2196 0.7216 0.18605 2182 5731358
2197 1.07156 0.1857 2181 8735808
2198 0.69052 0.18835 2180 5730444
2199 0.5558 0.1843 2198 8756226
2200 0.04272 0.18595 2198 8756241
2201 0.73965 0.20985 2161 3367267
2202 0.22937 0.20625 2201 3367269
2203 0.63062 0.21355000000000002 2160 8727842
2204 0.27208 0.28115 2147 8149962
2205 0.43398 0.3198 2141 3194051
2206 1.27426 0.4226 1871 2420192
2207 0.88997 0.40545 2206 2420166
2208 0.46655 0.3951 2207 2420142
2209 1.39447 0.3815 2208 2416178
2210 0.38257 0.3687 2209 2415872
2211 0.06103 0.36560000000000004 2210 2415865
2212 1.43819 0.35555000000000003 2211 2285579
2213 0.60257 0.34204999999999997 2212 5729723
2214 0.04718 0.3649 2211 2415866
2215 0.77662 0.35929999999999995 2214 2419045
2216 1.13263 0.3466 2215 3208204
2217 0.08062 0.35345 2215 2419073
2218 0.93497 0.3468 2217 2285831
2219 0.95901 0.3347 2218 2419267
2220 0.72452 0.33615 2218 8144134
2221 1.10383 0.32489999999999997 2220 8144161
2222 0.11428 0.33089999999999997 2220 8144260
2223 0.26254 0.35119999999999996 2217 2419102
2224 1.03523 0.3582 2211 3368892
2225 0.68535 0.36135 2210 2415873
2226 0.40208 0.354 2225 2420022
2227 0.38502 0.35409999999999997 2225 2420086
2228 0.21078 0.35014999999999996 2227 2420090
2229 0.55669 0.3675 2209 2416198
2230 1.11696 0.35609999999999997 2229 2420092
2231 0.50878 0.34530000000000005 2230 2420093
2232 0.42159 0.33930000000000005 2231 2420110
2233 0.12675 0.3358 2232 2420113
2234 0.79044 0.33015 2233 8150972
2235 0.42358 0.33930000000000005 2231 3207999
2236 0.14852 0.34765 2230 2420099
2237 0.07346 0.3631 2229 8748763
2238 0.92757 0.3564 2237 2416242
2239 0.13919 0.36165 2237 8748768
2240 0.21924 0.38995 2208 2420145
2241 0.52013 0.40825 2206 2420196
%root 2207249 2424373 2206510
%pre PEN1 2569292 3366077 2411962 3188816 3188896 3276127 3277310 3366941 2433414 2433510 2537438 2567519 9838712 2206761 2730211 2271124 2284329 2433160 3366150 2537438 2816065 3366077 2411852 2433128 3260269 3365870 2433187 3188816 3366422
%pre PEN2 2606812 2283816 3366097 2411487 2411495 2411962 2433263 2433358 3188816 3365870 2537680 5588446 2323368 2449190 2567646 2569626 2664424 2665273 2814696 2568417 2569153 9842618 2567418 2664877 2567952 2568500 2576615 10126718 2206780 2358183 2567646 2567766 5823412 2665038 2665069 2567952 9842618 2577116 10466102 2270744 2271124 2283816 2285248 2285831 2287254 2287486 2287534 2407817 2409465 2411789 2415866 2420166 3276127 3277310 3367022 2433464 2569182 10032260 2270744 2284329 2433289 3188800 3365870 3366150 3366307 3366404 2537438 8149610 5588446 5612561
%pre EPG 2424543 2455617 2455617 2567564 2567633 2567662 2567680 2567789 2569292 2855598 2605796 2605911 2665069 2665128 2665409 2665826 2730211 2814696 2567864 2567952 2568439 2568439 2568450 2568451 2568546 2568553 2569004 2569157 2816120 2835878 10014614 2576844 2576866 2577330 2577374 10116667 10123244 16245024 2567643 2567646 2567653 2567680 2567705 2855523 2920295 2992646 5954034 5959071 2657441 2665038 2665128 2665409 2567859 2567866 2568546 2568552 2569006 2816120 2816120 2576227 2576834 2576844 2576866 2576866 2577547 2592799 10123235 2567680 2567798 2920295 2928394 2992644 2992788 5959071 2570095 2570101 2570128 2657054 2657436 2568495 2568551 2568553 2568701 2569142 2816065 10128824 10129120 2268394 2315155 2345345 2358183 2358183 2359623 2359710 2455617 2567519 2567564 2567570 2569379 5823412 5989927 2569679 2570291 2605908 2605916 2606812 2664872 2665111 2665128 2665173 2665273 10032642 10032784 10032784 2814696 2568417 2568469 2568996 10011241 10170314 10466102 10900825 10981126 2304504 2323368 2359623 2367486 2567480 2567519 2567564 2569571 2569679 2570095 2570309 2665173 2665181 2567952 2568303 2568825 2569231 9899319 2576227 2367486 2449190 2567480 2567492 2567500 2567789 2567798 2855523 2866881 5815913 5823412 5989927 2569717 2570095 2570101 2570128 2570309 2570370 2605817 2605900 2605916 2605917 2606812 2665111 2665811 2665925 2665931 2665931 2665931 2814696 2567859 2568469 2568825 2568839 2568845 2568850 2568996 2569004 2816125 9891007 9899319 10014614 2575707 2576643 2576866 2592799 10123237 10123244 10126718 10981126 2569292 2569240 2569245 2569250
%pre PEG 9911098 2568825
%pre D7
%pre R 2569292 2567519 9838712 2606812 2323368 2449190 2567646 2569626 2664424 2665273 2814696 2568417 2569153 9842618 2567418 2664877 2567952 2568500 2576615 10126718 2569182 2424543 2455617 2455617 2567564 2567633 2567662 2567680 2567789 2569292 2855598 2605796 2605911 2665069 2665128 2665409 2665826 2730211 2814696 2567864 2567952 2568439 2568439 2568450 2568451 2568546 2568553 2569004 2569157 2816120 2835878 10014614 2576844 2576866 2577330 2577374 10116667 10123244 16245024 2567643 2567646 2567653 2567680 2567705 2855523 2920295 2992646 5954034 5959071 2657441 2665038 2665128 2665409 2567859 2567866 2568546 2568552 2569006 2816120 2816120 2576227 2576834 2576844 2576866 2576866 2577547 2592799 10123235 2567680 2567798 2920295 2928394 2992644 2992788 5959071 2570095 2570101 2570128 2657054 2657436 2568495 2568551 2568553 2568701 2569142 2816065 10128824 10129120 9911098 2567705 2567710 2577360 2992646 10032784 2568439
%post PEN1 5768554 3312685 5829092 2569286 3367171 3207316 2420086 3367411 2412061 10134228 2568695 2657286 2640842 6288368 2568296 2730214 2816165 2569029 2576889 2420086 2420113 2413073 2420110 3366116 3366150 3366166 3367119 2576886 2664423 2568651 2816065 3188706 2411885 3207490 3367477 3188817 2433187 2433185 2409566 2433363 3366968
%post PEN2 3365804 6910476 2433451 2433313 2433350 3366988 2567399 2577536 10727694 1984380 10011241 2576206 2577449 2665092 2569010 2569017 10024191 10024386 2577217 2569819 2576187 10108608 2855702 2576615 5811842 2568978 2855692 2206777 2405491 2665173 2665215 2854678 2276075 2569278 10343788 2285579 2419267 2271144 3188840 8405778 3368892 2271413 2288151 2283873 2411509 2284109 3276828 2284437 3219898 2286321 2287168 2407876 2288282 3365787 3366422 7569047 7569149 2433412 3367267 3188824 3366066
%post EPG 2665916 2567817 2568854 10974180 2568454 10029269 2570135 2577349 2816167 2577461 2577533 6122336 2835963 2568723 2657842 10130671 2855824 2657725 2516347 6121546 2855692 9838113 2455649 9881989 2567843 2814692 1989585 1984328 2855056 1753689 2271854 6121631 2567891 2457601 2570115 2568532 2570663 5942353 5966501 2657063 5937708 2570091 2570426 2570421 2992462 5942624 2576359 5942276 5942623 2272223 1733791 2501780 5943442 5947314 2992457 2657666 2657659 2816151 2568731 2567785 9911204 10108719 2992724 9959596 10977623 2074616 2569119 2657370 1981905 2568594 2081531 2657569 2657201 2568714 2570663 2468865 2568645 2568646 6776750 2468948 10110493 2855327 17246039 2568831 2534920 2342789 2577115 2345084 2569016 2304991 2304666 2304504 2334432 2357944 2298980 2835957 2337567 2665910 4142106 2301392 2569490 6004573 2299948 9878376 2665128 2855481 2353632 5768537 2568081 2353982 6324940 5820152 2353564 2353529 2816004 11174208 2330634 10275788 2739063 9996628 2577208 2569626 2744582 2367296 2576312 10113657 2570193 2665242 9854678 2570186 2317475 2568994 2568973 2664413 2569524 10114271 2568824 2865880 5821193 6044308 2577388 2605611 5816463 2570326 2448088 2447972 10140282 2665111 2854826 2407313 2578022 2580006 17622373 2576386 2567506 2575805 2657760 2657851 2577354 3572117 3556386 2413291 2404470 2988362 3570581 3003176 3102268 2988373 2988371 3570463 6845590
%post PEG 1777244 2854795 2568743 2577540 10126803 2863745 2855329 2568005 2568424 2854693 2854833 2664713 2841314 9879360 2844426 2567815 2665333 2461923 9849998 9901858 2569610 2568357 2568847 2568354 10122416 9801492 9906251 6319899 2568847 9899319 2577222 2577157 2568773 2424535 2664819 4708833 2664756 2424528 4708073 2568943 2567806 4709358 2854621 2567601 2855249 2855244 6323110 2854694 2567483 2577522
%post D7 3109086 7289059 7590298 7590024 7551920 2967166 6844434 2967007 7551847 6844331 2386652 2965954 6680897 6712003 3004298 7558753 3003283
%post R 5768554 3312685 5829092 2569286 10134228 2568695 2657286 2640842 6288368 2567399 2577536 10727694 1984380 10011241 2576206 2577449 2665092 2569010 2569017 10024191 10024386 2577217 2569819 2576187 10108608 2855702 2576615 5811842 2568978 2855692 2665916 2567817 2568854 10974180 2568454 10029269 2570135 2577349 2816167 2577461 2577533 6122336 2835963 2568723 2657842 10130671 2855824 2657725 2516347 6121546 2855692 9838113 2455649 9881989 2567843 2814692 1989585 1984328 2855056 1753689 2271854 6121631 2567891 2457601 2570115 2568532 2570663 5942353 5966501 2657063 5937708 2570091 2570426 2570421 2992462 5942624 2576359 5942276 5942623 2272223 1733791 2501780 5943442 5947314 2992457 2657666 2657659 2816151 2568731 2567785 9911204 10108719 2992724 9959596 10977623 2074616 2569119 2657370 1981905 2568594 2081531 2657569 2657201 2568714 2570663 2468865 2568645 2568646 6776750 2468948 10110493 2855327 1777244 2854795 2568743 2577540 10126803 2863745 2855329 2568005 2568424 2854693 2854833 2664713 2841314 9879360 2844426 2567815 2665333 2461923 9849998 9901858 2569610 2568357 2568847 2568354 10122416 3109086 7289059 7590298 7590024 7551920 2967166 6844434 2967007 7551847 6844331 2386652 2965954 6680897 6712003 3004298 7558753 3003283 2992760 10132487 2568799 2315155 2315155 10033004 10985582 2657819 2657265 2576492 2577366 2576442 2816110 2576550 2567722 2606650 2576487 10982744 2606285 2606290 2606648 10010766 9891007 10984111
%pre PEN1-5R 2569292
%pre PEN1-5L 3366077 2411962 3188816 3188896 3276127 3277310 3366941 2433414 2433510 2537438
%pre PEN1-6Ra 2567519 9838712
%pre PEN1-6Rb
%pre PEN1-6La 2206761 2730211 2271124 2284329 2433160 3366150 2537438
%pre PEN1-6Lb 2816065 3366077 2411852 2433128 3260269 3365870
%pre PEN1-7R
%pre PEN1-7L 2433187 3188816 3366422
%pre PEN2-5R 2606812
%pre PEN2-5L 2283816 3366097 2411487 2411495 2411962 2433263 2433358 3188816 3365870 2537680 5588446
%pre PEN2-6Ra 2323368 2449190 2567646 2569626 2664424 2665273 2814696 2568417 2569153 9842618
%pre PEN2-6Rb 2567418 2664877 2567952 2568500 2576615 10126718
%pre PEN2-6La
%pre PEN2-6Lb 2206780 2358183 2567646 2567766 5823412 2665038 2665069 2567952 9842618 2577116 10466102 2270744 2271124 2283816 2285248 2285831 2287254 2287486 2287534 2407817 2409465 2411789 2415866 2420166 3276127 3277310 3367022 2433464
%pre PEN2-7R 2569182
%pre PEN2-7L 10032260 2270744 2284329 2433289 3188800 3365870 3366150 3366307 3366404 2537438 8149610 5588446 5612561
%pre EPG-5Ra 2424543 2455617 2455617 2567564 2567633 2567662 2567680 2567789 2569292 2855598 2605796 2605911 2665069 2665128 2665409 2665826 2730211 2814696 2567864 2567952 2568439 2568439 2568450 2568451 2568546 2568553 2569004 2569157 2816120 2835878 10014614 2576844 2576866 2577330 2577374 10116667 10123244 16245024
%pre EPG-5Rb 2567643 2567646 2567653 2567680 2567705 2855523 2920295 2992646 5954034 5959071 2657441 2665038 2665128 2665409 2567859 2567866 2568546 2568552 2569006 2816120 2816120 2576227 2576834 2576844 2576866 2576866 2577547 2592799 10123235
%pre EPG-5Rc 2567680 2567798 2920295 2928394 2992644 2992788 5959071 2570095 2570101 2570128 2657054 2657436 2568495 2568551 2568553 2568701 2569142 2816065 10128824 10129120
%pre EPG-5La 2268394 2315155 2345345 2358183 2358183 2359623 2359710 2455617 2567519 2567564 2567570 2569379 5823412 5989927 2569679 2570291 2605908 2605916 2606812 2664872 2665111 2665128 2665173 2665273 10032642 10032784 10032784 2814696 2568417 2568469 2568996 10011241 10170314 10466102 10900825 10981126
%pre EPG-5Lb 2304504 2323368 2359623 2367486 2567480 2567519 2567564 2569571 2569679 2570095 2570309 2665173 2665181 2567952 2568303 2568825 2569231 9899319 2576227
%pre EPG-5Lc 2367486 2449190 2567480 2567492 2567500 2567789 2567798 2855523 2866881 5815913 5823412 5989927 2569717 2570095 2570101 2570128 2570309 2570370 2605817 2605900 2605916 2605917 2606812 2665111 2665811 2665925 2665931 2665931 2665931 2814696 2567859 2568469 2568825 2568839 2568845 2568850 2568996 2569004 2816125 9891007 9899319 10014614 2575707 2576643 2576866 2592799 10123237 10123244 10126718 10981126
%pre EPG-6Ra
%pre EPG-6Rb
%pre EPG-6La
%pre EPG-6Lb 2569292 2569240 2569245 2569250
%pre PEG-5R 9911098
%pre PEG-5L 2568825
%pre PEG-6R
%pre PEG-6L
%pre D7-5R4La
%pre D7-5R4Lb
%pre D7-6R3La
%pre D7-6R3Lb
%pre D7-7R2L
%pre D7-2R7L
%pre D7-1R9R8L
%pre GE-r1 2567766 2567798 2567814 2855598 2920295 2992502 2992502 2992644 2992646 2992648 2992788 5959071 2569821 2569831 2569843 2570095 2657420 2657436 2665173 2567952 2567982 2568493 2568688 2569123 2569142 2569153 2569157 9911098 10018157 10111112 2592799 10129120
%pre NO-LAL-G
%pre Ra
%pre Rb
%pre Rc
%pre Rd 2567705 2567710 2577360
%pre Re
%pre Rf
%pre Rg 2992646 10032784 2568439
%post PEN1-5R 5768554 3312685 5829092 2569286
%post PEN1-5L 3367171 3207316 2420086 3367411 2412061
%post PEN1-6Ra 10134228 2568695 2657286 2640842 6288368
%post PEN1-6Rb
%post PEN1-6La 2568296 2730214 2816165 2569029 2576889 2420086 2420113 2413073 2420110 3366116 3366150 3366166 3367119
%post PEN1-6Lb 2576886 2664423 2568651 2816065 3188706 2411885 3207490 3367477
%post PEN1-7R
%post PEN1-7L 3188817 2433187 2433185 2409566 2433363 3366968
%post PEN2-5R
%post PEN2-5L 3365804 6910476 2433451 2433313 2433350 3366988
%post PEN2-6Ra 2567399 2577536 10727694 1984380 10011241 2576206 2577449 2665092 2569010 2569017 10024191 10024386 2577217 2569819
%post PEN2-6Rb 2576187 10108608 2855702 2576615 5811842 2568978 2855692
%post PEN2-6La
%post PEN2-6Lb 2206777 2405491 2665173 2665215 2854678 2276075 2569278 10343788 2285579 2419267 2271144 3188840 8405778 3368892 2271413 2288151 2283873 2411509 2284109 3276828 2284437 3219898 2286321 2287168 2407876 2288282
%post PEN2-7R
%post PEN2-7L 3365787 3366422 7569047 7569149 2433412 3367267 3188824 3366066
%post EPG-5Ra 2665916 2567817 2568854 10974180 2568454 10029269 2570135 2577349 2816167 2577461 2577533 6122336 2835963 2568723 2657842 10130671 2855824 2657725 2516347 6121546 2855692 9838113 2455649 9881989 2567843 2814692 1989585 1984328 2855056 1753689 2271854 6121631 2567891 2457601
%post EPG-5Rb 2570115 2568532 2570663 5942353 5966501 2657063 5937708 2570091 2570426 2570421 2992462 5942624 2576359 5942276 5942623 2272223 1733791 2501780 5943442 5947314 2992457 2657666 2657659 2816151 2568731 2567785 9911204 10108719
%post EPG-5Rc 2992724 9959596 10977623 2074616 2569119 2657370 1981905 2568594 2081531 2657569 2657201 2568714 2570663 2468865 2568645 2568646 6776750 2468948 10110493 2855327
%post EPG-5La 17246039 2568831 2534920 2342789 2577115 2345084 2569016 2304991 2304666 2304504 2334432 2357944 2298980 2835957 2337567 2665910 4142106 2301392 2569490 6004573 2299948 9878376
%post EPG-5Lb 2665128 2855481 2353632 5768537 2568081 2353982 6324940 5820152 2353564 2353529 2816004 11174208 2330634 10275788 2739063 9996628 2577208 2569626 2744582 2367296 2576312 10113657 2570193 2665242 9854678 2570186 2317475 2568994 2568973 2664413 2569524 10114271 2568824
%post EPG-5Lc 2865880 5821193 6044308 2577388 2605611 5816463 2570326 2448088 2447972 10140282 2665111 2854826 2407313 2578022 2580006 17622373 2576386 2567506 2575805 2657760 2657851 2577354
%post EPG-6Ra
%post EPG-6Rb
%post EPG-6La 3572117 3556386 2413291 2404470
%post EPG-6Lb 2988362 3570581 3003176 3102268 2988373 2988371 3570463 6845590
%post PEG-5R 1777244 2854795 2568743 2577540 10126803 2863745 2855329 2568005 2568424 2854693 2854833 2664713 2841314 9879360 2844426 2567815 2665333 2461923 9849998 9901858 2569610 2568357 2568847 2568354 10122416
%post PEG-5L 9801492 9906251 6319899 2568847 9899319 2577222 2577157 2568773 2424535 2664819 4708833 2664756 2424528 4708073 2568943 2567806 4709358 2854621 2567601 2855249 2855244 6323110 2854694 2567483 2577522
%post PEG-6R
%post PEG-6L
%post D7-5R4La
%post D7-5R4Lb
%post D7-6R3La 3109086 7289059 7590298 7590024 7551920 2967166 6844434 2967007 7551847 6844331 2386652 2965954
%post D7-6R3Lb
%post D7-7R2L
%post D7-2R7L 6680897 6712003 3004298 7558753 3003283
%post D7-1R9R8L
%post GE-r1 2855327 2640413 2855027
%post NO-LAL-G
%post Ra 2992760 10132487 2568799 2315155 2315155 10033004
%post Rb 10985582 2657819 2657265
%post Rc
%post Rd 2576492 2577366 2576442 2816110
%post Re 2576550 2567722 2606650 2576487
%post Rf 10982744 2606285 2606290
%post Rg 2606648 10010766 9891007 10984111